Date,MSCI_PX_CE,MSCI_Y_ON_Y_GR_TRAIL_EPS,BEST_PE_RATIO,PX_OPEN,PX_HIGH,PX_LOW,PX_OFFICIAL_CLOSE,LISTED_SH,NUM_TRADES,TOT_SELL_REC,TOT_BUY_REC,TOT_HOLD_REC
,,,,6.25,6.5313,6.2188,,,,0,13,0
2000-05-02 00:00:00,,,,6.5,6.8438,6.4844,,,,,,
2000-05-03 00:00:00,,,,6.7031,6.7969,6.5313,,,,,,
2000-05-04 00:00:00,,,,6.5625,7.0313,6.5313,,,,0,13,0
2000-05-05 00:00:00,,,,6.8594,7.1563,6.8594,,,,,,
2000-05-08 00:00:00,,,,7.0313,7.3594,7,,,,,,
2000-05-09 00:00:00,,,,7.2344,7.3438,6.9375,,,,,,
2000-05-10 00:00:00,,,,7.1094,7.2031,6.9531,,,,,,
2000-05-11 00:00:00,,,,7.25,7.375,7.2031,,,,0,13,0
2000-05-12 00:00:00,,,,7.375,7.4375,7.2188,,,,0,13,0
2000-05-15 00:00:00,,,,7.3906,7.4844,7.375,,,,0,13,0
2000-05-16 00:00:00,,,,7.375,7.375,6.9531,,,,,,
2000-05-17 00:00:00,,,,7.0313,7.625,7,,,,,,
2000-05-18 00:00:00,,,,7.4375,7.7031,7.3125,,,,,,
2000-05-19 00:00:00,,,,7.6875,7.8594,7.5156,,,,,,
2000-05-22 00:00:00,,,,7.7813,7.9844,7.7031,,,,,,
2000-05-23 00:00:00,,,,7.8906,7.9688,7.7656,,,,0,13,0
2000-05-24 00:00:00,,,,7.7969,7.9844,7.6719,,,,,,
2000-05-25 00:00:00,,,,7.875,7.875,7.4219,,,,,,
2000-05-26 00:00:00,,,,7.625,7.7344,7.4531,,,,,,
2000-05-30 00:00:00,,,,7.5,7.8125,7.4531,,,,0,13,0
2000-05-31 00:00:00,,,,7.8125,8.125,7.7969,,,,0,13,0
2000-06-01 00:00:00,,,,8.2188,8.2188,7.8438,,,,0,13,0
2000-06-02 00:00:00,,,,8.0625,8.1094,7.5938,,,,,,
2000-06-05 00:00:00,,,,7.625,7.625,7.4375,,,,0,13,0
2000-06-06 00:00:00,,,,7.4844,7.8594,7.4844,,,,0,13,0
2000-06-07 00:00:00,,,,7.8438,8.0938,7.5625,,,,,,
2000-06-08 00:00:00,,,,7.875,8.25,7.875,,,,0,13,0
2000-06-09 00:00:00,,,,8.0469,8.0469,7.8906,,,,,,
2000-06-12 00:00:00,,,,7.9844,8.2344,7.9688,,,,,,
2000-06-13 00:00:00,,,,8.2031,8.3594,8.1875,,,,,,
2000-06-14 00:00:00,,,,8.3281,8.4844,8.2969,,,,,,
2000-06-15 00:00:00,,,,8.3438,8.4219,8.1406,,,,,,
2000-06-16 00:00:00,,,,8.3438,8.7188,8.3438,,,,,,
2000-06-19 00:00:00,,,,8.625,8.7031,8.375,,,,,,
2000-06-20 00:00:00,,,,8.375,8.4063,8.2188,,,,0,14,0
2000-06-21 00:00:00,,,,8.3906,8.4688,8.1719,,,,,,
2000-06-22 00:00:00,,,,8.5781,8.5781,7.9375,,,,0,14,0
2000-06-23 00:00:00,,,,8.1406,8.3906,8.1406,,,,,,
2000-06-26 00:00:00,,,,8.3125,8.4375,8,,,,,,
2000-06-27 00:00:00,,,,8.0625,8.25,7.9531,,,,,,
2000-06-28 00:00:00,,,,8.2188,8.375,8.125,,,,,,
2000-06-29 00:00:00,,,,8.375,8.5781,8.2813,,,,,,
2000-06-30 00:00:00,,,,8.4375,8.5938,8.1875,,,,,,
2000-07-03 00:00:00,,,,8.3906,8.4375,8.1875,,,,,,
2000-07-05 00:00:00,,,,8.2188,8.2188,7.3125,,,,0,14,0
2000-07-06 00:00:00,,,,7.625,7.6875,6.8281,,,,0,14,0
2000-07-07 00:00:00,,,,7.125,7.5313,7.0469,,,,,,
2000-07-10 00:00:00,,,,7.9844,7.9844,7.5625,,,,,,
2000-07-11 00:00:00,,,,7.625,8.125,7.625,,,,0,14,0
2000-07-12 00:00:00,,,,8.375,8.375,7.8438,,,,,,
2000-07-13 00:00:00,,,,7.8438,8.0938,7.5469,,,,0,14,0
2000-07-14 00:00:00,,,,7.9844,8.0469,7.75,,,,,,
2000-07-17 00:00:00,,,,7.875,8.1094,7.5156,,,,,,
2000-07-18 00:00:00,,,,7.5313,7.875,7.5313,,,,,,
2000-07-19 00:00:00,,,,7.8594,7.875,7.6875,,,,,,
2000-07-20 00:00:00,,,,7.7344,7.7344,7.1719,,,,,,
2000-07-21 00:00:00,,,,7.3125,7.3125,6.7344,,,,0,14,0
2000-07-24 00:00:00,,,,7.0313,7.125,6.75,,,,,,
2000-07-25 00:00:00,,,,6.9688,7.125,6.6719,,,,0,14,0
2000-07-26 00:00:00,,,,6.7656,7.0469,6.75,,,,0,15,0
2000-07-27 00:00:00,,,,7.0156,7.4531,7.0156,,,,,,
2000-07-28 00:00:00,,,,7.375,7.6719,7.375,,,,,,
2000-07-31 00:00:00,,,,7.75,7.75,7.2656,,,,,,
2000-08-01 00:00:00,,,,7.375,7.8438,7.375,,,,0,15,0
2000-08-02 00:00:00,,,,7.7031,8.0156,7.7031,,,,,,
2000-08-03 00:00:00,,,,8.125,8.5,7.875,,,,,,
2000-08-04 00:00:00,,,,8.0313,8.2656,7.9063,,,,,,
2000-08-07 00:00:00,,,,8.2188,8.375,8.1563,,,,,,
2000-08-08 00:00:00,,,,8.2344,8.4375,8.1719,,,,,,
2000-08-09 00:00:00,,,,8.4844,8.4844,8.2813,,,,0,16,0
2000-08-10 00:00:00,,,,8.4375,8.6563,8.375,,,,0,16,0
2000-08-11 00:00:00,,,,8.5938,8.6094,8.4531,,,,,,
2000-08-14 00:00:00,,,,8.5781,8.9844,8.5781,,,,,,
2000-08-15 00:00:00,,,,8.75,9,8.75,,,,,,
2000-08-16 00:00:00,,,,8.8906,9,8.7656,,,,,,
2000-08-17 00:00:00,,,,8.9375,9.4375,8.9375,,,,0,16,0
2000-08-18 00:00:00,,,,9.125,9.1719,8.8438,,,,,,
2000-08-21 00:00:00,,,,9.2031,9.2656,8.9531,,,,,,
2000-08-22 00:00:00,,,,9.2188,9.375,9.1406,,,,,,
2000-08-23 00:00:00,,,,9.25,9.5156,9.2031,,,,,,
2000-08-24 00:00:00,,,,9.4375,9.5156,9.25,,,,,,
2000-08-25 00:00:00,,,,9.4688,9.5156,9.2969,,,,,,
2000-08-28 00:00:00,,,,9.4844,9.6094,9.4375,,,,,,
2000-08-29 00:00:00,,,,9.5313,9.875,9.4375,,,,,,
2000-08-30 00:00:00,,,,9.7344,9.7813,9.3281,,,,,,
2000-08-31 00:00:00,,,,9.5625,9.6875,9.5156,,,,0,16,0
2000-09-01 00:00:00,,,,9.625,9.7969,9.6094,,,,,,
2000-09-05 00:00:00,,,,9.5625,9.6563,9.5,,,,,,
2000-09-06 00:00:00,,,,9.5938,9.8125,9.5156,,,,,,
2000-09-07 00:00:00,,,,9.8125,9.8281,9.6563,,,,0,16,0
2000-09-08 00:00:00,,,,9.6719,9.7344,9.4531,,,,,,
2000-09-11 00:00:00,,,,9.6875,9.9688,9.625,,,,,,
2000-09-12 00:00:00,,,,9.9688,10.0938,9.8438,,,,,,
2000-09-13 00:00:00,,,,10.125,10.125,9.7031,,,,,,
2000-09-14 00:00:00,,,,9.8125,9.9375,9.5781,,,,,,
2000-09-15 00:00:00,,,,9.8906,10.0938,9.7813,,,,,,
2000-09-18 00:00:00,,,,9.875,10.0469,9.8438,,,,,,
2000-09-19 00:00:00,,,,9.9844,10.0469,9.6406,,,,,,
2000-09-20 00:00:00,,,,9.7656,10.125,9.7031,,,,0,16,0
2000-09-21 00:00:00,,,,9.875,9.875,9.5313,,,,0,16,0
2000-09-22 00:00:00,,,,9.5,9.8125,9.4688,,,,,,
2000-09-25 00:00:00,,,,9.4219,9.4219,9,,,,0,16,0
2000-09-26 00:00:00,,,,9.3594,9.875,9.3594,,,,,,
2000-09-27 00:00:00,,,,9.7969,9.9531,9.7344,,,,,,
2000-09-28 00:00:00,,,,9.9688,10.0313,9.75,,,,0,16,0
2000-09-29 00:00:00,,,,9.8125,10.2188,9.6563,,,,,,
2000-10-02 00:00:00,,,,9.8594,10,9.8281,,,,0,16,0
2000-10-03 00:00:00,,,,9.9219,9.9375,9.8125,,,,0,16,0
2000-10-04 00:00:00,,,,9.8281,9.8438,9.4063,,,,,,
2000-10-05 00:00:00,,,,9.4531,9.5,9.1875,,,,0,16,0
2000-10-06 00:00:00,,,,9.25,9.5156,9.25,,,,,,
2000-10-09 00:00:00,,,,9.5313,9.625,9.375,,,,,,
2000-10-10 00:00:00,,,,9.5313,10.1875,9.5156,,,,,,
2000-10-11 00:00:00,,,,10.3438,10.7188,10.2656,,,,,,
2000-10-12 00:00:00,,,,10.5,10.7656,10.4219,,,,0,16,0
2000-10-13 00:00:00,,,,10.5,10.5,10.25,,,,,,
2000-10-16 00:00:00,,,,10.5,10.5,10.1875,,,,,,
2000-10-17 00:00:00,,,,10.25,10.6406,10.2344,,,,0,16,0
2000-10-18 00:00:00,,,,10.625,10.8125,10.5625,,,,0,16,0
2000-10-19 00:00:00,,,,10.5938,10.75,10.5469,,,,0,16,0
2000-10-20 00:00:00,,,,10.5938,10.875,10.5781,,,,,,
2000-10-23 00:00:00,,,,10.875,10.9375,10.5,,,,,,
2000-10-24 00:00:00,,,,10.6875,10.75,9.7813,,,,0,16,0
2000-10-25 00:00:00,,,,9.8438,9.8594,8.8281,,,,,,
2000-10-26 00:00:00,,,,9.2031,9.5,9.2031,,,,0,16,0
2000-10-27 00:00:00,,,,9.4688,9.75,9,,,,,,
2000-10-30 00:00:00,,,,9.4688,9.6719,9.2969,,,,,,
2000-10-31 00:00:00,,,,9.625,9.8438,9.4531,,,,,,
2000-11-01 00:00:00,,,,10.7344,10.8594,10.2656,,,,,,
2000-11-02 00:00:00,,,,10.5,10.5,10.2344,,,,,,
2000-11-03 00:00:00,,,,10.2656,10.4219,10.125,,,,,,
2000-11-06 00:00:00,,,,10.1406,10.1406,9.8438,,,,0,17,0
2000-11-07 00:00:00,,,,10.0625,10.1563,9.8594,,,,0,18,0
2000-11-08 00:00:00,,,,10.0313,10.2969,10.0156,,,,,,
2000-11-09 00:00:00,,,,10.2188,10.25,9.8594,,,,,,
2000-11-10 00:00:00,,,,9.9844,10,9.9219,,,,,,
2000-11-13 00:00:00,,,,10,10.0469,9.7188,,,,,,
2000-11-14 00:00:00,,,,9.75,10.125,9.75,,,,,,
2000-11-15 00:00:00,,,,10.1875,10.9844,10.1875,,,,0,19,0
2000-11-16 00:00:00,,,,10.9375,11.25,10.7656,,,,0,19,0
2000-11-17 00:00:00,,,,11.0469,11.1094,10.7813,,,,,,
2000-11-20 00:00:00,,,,10.9688,10.9688,10.5,,,,,,
2000-11-21 00:00:00,,,,10.4531,11,10.4375,,,,,,
2000-11-22 00:00:00,,,,10.9844,11.0313,10.75,,,,,,
2000-11-24 00:00:00,,,,11.2344,11.4063,11.1875,,,,,,
2000-11-27 00:00:00,,,,11.3906,11.5,11.1563,,,,,,
2000-11-28 00:00:00,,,,11.4375,11.5938,11.2969,,,,,,
2000-11-29 00:00:00,,,,11.25,11.2656,10.4063,,,,,,
2000-11-30 00:00:00,,,,10.7031,11.1094,10.3438,,,,0,19,0
2000-12-01 00:00:00,,,,10.6719,11.1094,10.6406,,,,,,
2000-12-04 00:00:00,,,,11.1719,11.6719,11.1719,,,,,,
2000-12-05 00:00:00,,,,11.5,11.875,11.3906,,,,,,
2000-12-06 00:00:00,,,,11.8125,11.9844,11.6563,,,,,,
2000-12-07 00:00:00,,,,12,12.1875,10.9688,,,,0,19,0
2000-12-08 00:00:00,,,,11.4688,11.5,11.1094,,,,0,19,0
2000-12-11 00:00:00,,,,11.4688,11.9219,11.4375,,,,,,
2000-12-12 00:00:00,,,,11.875,12.0938,11.5625,,,,,,
2000-12-13 00:00:00,,,,12.0781,12.375,12.0156,,,,,,
2000-12-14 00:00:00,,,,11.9375,12.1563,11.7344,,,,0,19,0
2000-12-15 00:00:00,,,,11.75,11.9844,11.75,,,,,,
2000-12-18 00:00:00,,,,11.9375,12.5938,11.9219,,,,,,
2000-12-19 00:00:00,,,,12.3906,12.9844,12.3906,,,,,,
2000-12-20 00:00:00,,,,12.5938,12.9375,12.4063,,,,,,
2000-12-21 00:00:00,,,,12.625,13.125,12.625,,,,,,
2000-12-22 00:00:00,,,,12.9219,13.0156,12.75,,,,,,
2000-12-26 00:00:00,,,,13,13.9688,13,,,,,,
2000-12-27 00:00:00,,,,13.875,14.0156,13.625,,,,0,19,0
2000-12-28 00:00:00,,,,13.9688,14.1719,13.8438,,,,,,
2000-12-29 00:00:00,,,,14.1094,14.1563,13.5,,,,,,
2001-01-02 00:00:00,,,,13.6094,13.875,13.1563,,,,,,
2001-01-03 00:00:00,,,,13.25,13.4688,12.1875,,,,,,
2001-01-04 00:00:00,,,,12.25,12.3594,11.4063,,,,0,19,0
2001-01-05 00:00:00,,,,11.8438,12.1094,11.5938,,,,,,
2001-01-08 00:00:00,,,,12,12.6094,12,,,,,,
2001-01-09 00:00:00,,,,12.4375,12.4531,11.8906,,,,,,
2001-01-10 00:00:00,,,,12.125,12.5938,12.0938,,,,,,
2001-01-11 00:00:00,,,,12.3125,12.4844,11.8438,,,,,,
2001-01-12 00:00:00,,,,11.875,11.875,11.6094,,,,,,
2001-01-16 00:00:00,,,,11.4375,12.0781,11.4375,,,,,,
2001-01-17 00:00:00,,,,11.9219,11.9219,11.0781,,,,,,
2001-01-18 00:00:00,,,,10.9375,10.9375,10.2656,,,,,,
2001-01-19 00:00:00,,,,10.75,11.1875,10.5469,,,,0,18,1
2001-01-22 00:00:00,,,,11.0625,11.375,11.0625,,,,0,18,1
2001-01-23 00:00:00,,,,11.3281,11.6094,11.3125,,,,0,19,1
2001-01-24 00:00:00,,,,11.5156,11.7344,11.375,,,,0,19,1
2001-01-25 00:00:00,,,,11.5,11.8906,11.5,,,,,,
2001-01-26 00:00:00,,,,11.7656,11.9531,11.6406,,,,,,
2001-01-29 00:00:00,,,,11.7175,11.875,11.345,,,,,,
2001-01-30 00:00:00,,,,11.3475,11.3975,10.93,,,,0,19,1
2001-01-31 00:00:00,,,,11.125,11.25,10.875,,,,,,
2001-02-01 00:00:00,,,,11.0375,11.1125,10.55,,,,,,
2001-02-02 00:00:00,,,,10.875,11.375,10.875,,,,,,
2001-02-05 00:00:00,,,,11.075,11.5375,11.075,,,,,,
2001-02-06 00:00:00,,,,11.4375,11.6875,11.25,,,,0,19,1
2001-02-07 00:00:00,,,,11.725,11.95,11.315,,,,0,19,1
2001-02-08 00:00:00,,,,11.75,11.9375,11.5,,,,0,19,1
2001-02-09 00:00:00,,,,11.5275,11.9925,11.4975,,,,0,19,1
2001-02-12 00:00:00,,,,12.1375,12.1875,11.625,,,,,,
2001-02-13 00:00:00,,,,11.4625,11.835,11.375,,,,0,19,2
2001-02-14 00:00:00,,,,11.8,12.08,11.7625,,,,0,19,2
2001-02-15 00:00:00,,,,11.765,11.765,11.25,,,,,,
2001-02-16 00:00:00,,,,11.575,11.8,11.4325,,,,,,
2001-02-20 00:00:00,,,,11.5125,11.6875,11.4375,,,,,,
2001-02-21 00:00:00,,,,11.575,11.8125,11.175,,,,,,
2001-02-22 00:00:00,,,,11.2375,11.325,11.0125,,,,0,19,2
2001-02-23 00:00:00,,,,11.0275,11.1875,10.805,,,,,,
2001-02-26 00:00:00,,,,10.9625,11.125,10.8875,,,,,,
2001-02-27 00:00:00,,,,11.06,11.2375,11.0375,,,,,,
2001-02-28 00:00:00,,,,11.0925,11.0925,10.75,,,,0,19,2
2001-03-01 00:00:00,,,,10.8125,10.9875,10.755,,,,0,20,2
2001-03-02 00:00:00,,,,11.075,11.3075,10.975,,,,0,20,2
2001-03-05 00:00:00,,,,11.4,11.6225,11.375,,,,,,
2001-03-06 00:00:00,,,,11.6,11.7175,11.575,,,,0,20,2
2001-03-07 00:00:00,,,,11.8875,12.3,11.825,,,,0,20,2
2001-03-08 00:00:00,,,,12.425,12.5775,11.95,,,,,,
2001-03-09 00:00:00,,,,12.5,12.675,12.3625,,,,,,
2001-03-12 00:00:00,,,,12.475,12.5,11.8575,,,,,,
2001-03-13 00:00:00,,,,11.8725,11.8975,11.5,,,,,,
2001-03-14 00:00:00,,,,11.45,11.6375,11.3,,,,0,20,2
2001-03-15 00:00:00,,,,11.6,11.625,11.125,,,,,,
2001-03-16 00:00:00,,,,11.125,11.325,11.065,,,,,,
2001-03-19 00:00:00,,,,11.15,11.4975,11.15,,,,,,
2001-03-20 00:00:00,,,,11.48,11.845,11.365,,,,0,20,2
2001-03-21 00:00:00,,,,11.7,11.7125,10.975,,,,0,20,2
2001-03-22 00:00:00,,,,11.025,11.025,10.4,,,,,,
2001-03-23 00:00:00,,,,10.735,11.0625,10.675,,,,,,
2001-03-26 00:00:00,,,,10.8725,11.0625,10.8,,,,0,20,2
2001-03-27 00:00:00,,,,10.875,10.955,10.5125,,,,,,
2001-03-28 00:00:00,,,,10.625,10.735,10.4,,,,,,
2001-03-29 00:00:00,,,,10.3125,10.3125,9.825,,,,0,20,2
2001-03-30 00:00:00,,,,10.0225,10.3375,10.0225,,,,,,
2001-04-02 00:00:00,,,,10.37,10.4,9.8625,,,,0,20,2
2001-04-03 00:00:00,,,,9.9125,9.9225,9.415,,,,0,20,2
2001-04-04 00:00:00,,,,9.625,9.8925,9.475,,,,0,20,2
2001-04-05 00:00:00,,,,9.8,10.105,9.725,,,,0,20,2
2001-04-06 00:00:00,,,,10.1,10.12,9.7875,,,,,,
2001-04-09 00:00:00,,,,10.275,10.5,10.275,,,,0,20,2
2001-04-10 00:00:00,,,,10.65,10.7825,10.505,,,,0,20,2
2001-04-11 00:00:00,,,,10.925,10.925,10.64,,,,,,
2001-04-12 00:00:00,,,,10.7225,10.875,10.695,,,,0,20,2
2001-04-16 00:00:00,,,,10.825,11.1975,10.825,,,,0,20,2
2001-04-17 00:00:00,,,,11.15,11.35,11,,,,,,
2001-04-18 00:00:00,,,,11.33,11.4575,11.1,,,,,,
2001-04-19 00:00:00,,,,11.06,11.075,10.4375,,,,,,
2001-04-20 00:00:00,,,,10.7875,11.025,10.6875,,,,,,
2001-04-23 00:00:00,,,,11,11.7375,10.975,,,,0,20,2
2001-04-24 00:00:00,,,,11.5625,11.9,11.5625,,,,0,21,1
2001-04-25 00:00:00,,,,11.875,11.9775,11.7125,,,,0,21,1
2001-04-26 00:00:00,,,,12.15,12.255,11.9575,,,,0,21,1
2001-04-27 00:00:00,,,,11.96,11.9975,11.6875,,,,,,
2001-04-30 00:00:00,,,,11.8,12,11.35,,,,,,
2001-05-01 00:00:00,,,,11.56,11.56,11.2625,,,,0,21,1
2001-05-02 00:00:00,,,,11.25,11.25,10.605,,,,,,
2001-05-03 00:00:00,,,,10.625,10.7875,10.2875,,,,,,
2001-05-04 00:00:00,,,,10.5625,11,10.5625,,,,,,
2001-05-07 00:00:00,,,,11.1,11.15,10.9,,,,,,
2001-05-08 00:00:00,,,,10.9375,11.05,10.7825,,,,,,
2001-05-09 00:00:00,,,,11,11.3,11,,,,0,21,1
2001-05-10 00:00:00,,,,11.275,11.35,11.1,,,,0,21,1
2001-05-11 00:00:00,,,,11.15,11.15,11.0325,,,,,,
2001-05-14 00:00:00,,,,11.2675,11.3625,11.1625,,,,,,
2001-05-15 00:00:00,,,,11.3625,11.8625,11.3625,,,,0,21,1
2001-05-16 00:00:00,,,,11.85,12.1225,11.8,,,,,,
2001-05-17 00:00:00,,,,11.6275,12.1,11.5375,,,,,,
2001-05-18 00:00:00,,,,12.0225,12.3725,12.0125,,,,,,
2001-05-21 00:00:00,,,,12.33,12.465,12.3075,,,,,,
2001-05-22 00:00:00,,,,12.4375,12.4375,12.1775,,,,,,
2001-05-23 00:00:00,,,,12.125,12.2,11.675,,,,0,21,1
2001-05-24 00:00:00,,,,11.445,11.575,11.25,,,,0,21,1
2001-05-25 00:00:00,,,,11.375,11.52,11.275,,,,,,
2001-05-29 00:00:00,,,,11.49,11.625,11.1625,,,,,,
2001-05-30 00:00:00,,,,11.28,11.28,10.875,,,,,,
2001-05-31 00:00:00,,,,11.1875,11.32,11.0275,,,,,,
2001-06-01 00:00:00,,,,11.2625,11.3625,10.95,,,,0,21,1
2001-06-04 00:00:00,,,,11.4375,11.5175,11.3625,,,,,,
2001-06-05 00:00:00,,,,11.1875,11.3525,11.175,,,,,,
2001-06-06 00:00:00,,,,11.125,11.125,10.375,,,,,,
2001-06-07 00:00:00,,,,10.44,10.44,10.2125,,,,,,
2001-06-08 00:00:00,,,,10.41,10.4625,9.98,,,,,,
2001-06-11 00:00:00,,,,10.425,10.5375,10.25,,,,0,22,1
2001-06-12 00:00:00,,,,10.7,10.8125,10.555,,,,,,
2001-06-13 00:00:00,,,,10.775,10.935,10.3775,,,,0,23,1
2001-06-14 00:00:00,,,,10.3975,10.3975,10.1875,,,,,,
2001-06-15 00:00:00,,,,10.0525,10.3625,10.0525,,,,0,23,1
2001-06-18 00:00:00,,,,10.175,10.175,9.86,,,,0,23,1
2001-06-19 00:00:00,,,,10,10,9.8075,,,,0,23,1
2001-06-20 00:00:00,,,,9.9975,10.12,9.745,,,,,,
2001-06-21 00:00:00,,,,9.84,9.85,9,,,,,,
2001-06-22 00:00:00,,,,9.275,9.525,9.0875,,,,,,
2001-06-25 00:00:00,,,,9.35,9.575,9.325,,,,,,
2001-06-26 00:00:00,,,,9.375,9.525,9.25,,,,0,23,1
2001-06-27 00:00:00,,,,9.365,9.365,9.1,,,,0,23,1
2001-06-28 00:00:00,,,,9.2025,9.2025,8.7275,,,,,,
2001-06-29 00:00:00,,,,8.975,9.0475,8.8125,,,,0,23,1
2001-07-02 00:00:00,,,,9.0125,9.0125,8.6125,,,,0,23,1
2001-07-03 00:00:00,,,,8.715,8.8975,8.7,,,,0,23,1
2001-07-05 00:00:00,,,,8.85,9.2,8.85,,,,,,
2001-07-06 00:00:00,,,,9.1225,9.2475,8.885,,,,,,
2001-07-09 00:00:00,,,,9.15,9.15,8.825,,,,0,22,2
2001-07-10 00:00:00,,,,8.925,9,8.6875,,,,0,22,1
2001-07-11 00:00:00,,,,8.5625,8.5625,8.15,,,,,,
2001-07-12 00:00:00,,,,8.4625,8.625,8.18,,,,,,
2001-07-13 00:00:00,,,,8.275,8.6525,8.2125,,,,,,
2001-07-16 00:00:00,,,,8.3725,8.575,8.1075,,,,0,22,1
2001-07-17 00:00:00,,,,7.875,8.1,7.875,,,,,,
2001-07-18 00:00:00,,,,7.9575,7.9725,7.7,,,,,,
2001-07-19 00:00:00,,,,7.85,7.985,7.75,,,,,,
2001-07-20 00:00:00,,,,7.905,8.0875,7.8875,,,,,,
2001-07-23 00:00:00,,,,8.125,8.24,8,,,,,,
2001-07-24 00:00:00,,,,8.03,8.03,7.7,,,,0,22,1
2001-07-25 00:00:00,,,,7.855,8.47,7.7175,,,,0,22,1
2001-07-26 00:00:00,,,,8.5,8.6875,8.44,,,,,,
2001-07-27 00:00:00,,,,8.75,9.125,8.485,,,,,,
2001-07-30 00:00:00,,,,8.95,9.2225,8.8475,,,,,,
2001-07-31 00:00:00,,,,9.125,9.125,8.8225,,,,0,22,1
2001-08-01 00:00:00,,,,8.925,9.0725,8.6,,,,0,22,1
2001-08-02 00:00:00,,,,8.6875,8.825,8.5275,,,,,,
2001-08-03 00:00:00,,,,8.75,8.7725,8.525,,,,0,22,1
2001-08-06 00:00:00,,,,8.5675,8.705,8.4225,,,,0,22,1
2001-08-07 00:00:00,,,,8.5,8.6175,8.4025,,,,0,22,1
2001-08-08 00:00:00,,,,8.4375,8.5125,8.0275,,,,0,21,1
2001-08-09 00:00:00,,,,8.0425,8.155,7.9399999999999995,,,,0,21,1
2001-08-10 00:00:00,,,,8.0625,8.235,8.0125,,,,,,
2001-08-13 00:00:00,,,,8,8.3225,8,,,,0,21,1
2001-08-14 00:00:00,,,,8.375,8.375,8.2775,,,,,,
2001-08-15 00:00:00,,,,8.325,9.05,8.325,,,,,,
2001-08-16 00:00:00,,,,9.0375,9.04,8.77,,,,,,
2001-08-17 00:00:00,,,,9.02,9.02,8.625,,,,,,
2001-08-20 00:00:00,,,,8.8125,8.8125,8.53,,,,,,
2001-08-21 00:00:00,,,,8.625,8.6475,8.4625,,,,0,21,1
2001-08-22 00:00:00,,,,8.6125,8.925,8.3775,,,,,,
2001-08-23 00:00:00,,,,8.4775,8.4775,8.2875,,,,0,20,2
2001-08-24 00:00:00,,,,8.255,8.27,8.1,,,,,,
2001-08-27 00:00:00,,,,8.1875,8.2275,8.0375,,,,,,
2001-08-28 00:00:00,,,,8.0675,8.14,8.025,,,,,,
2001-08-29 00:00:00,,,,8.12,8.195,7.875,,,,,,
2001-08-30 00:00:00,,,,8.1,8.11,7.7524999999999995,,,,,,
2001-08-31 00:00:00,,,,7.895,7.9875,7.8125,,,,0,20,2
2001-09-03 00:00:00,,,,,,,,,,0,20,2
2001-09-04 00:00:00,,,,8.125,8.1375,8,,,,0,20,2
2001-09-05 00:00:00,,,,8.0625,8.065,7.8149999999999995,,,,,,
2001-09-06 00:00:00,,,,7.95,8.225,7.8875,,,,,,
2001-09-07 00:00:00,,,,8.075,8.275,8.025,,,,,,
2001-09-10 00:00:00,,,,8.08,8.27,8.055,,,,,,
2001-09-11 00:00:00,,,,,,,,,,0,20,2
2001-09-17 00:00:00,,,,8.2,8.2975,7.675,,,,,,
2001-09-18 00:00:00,,,,7.4925,7.66,7.1575,,,,,,
2001-09-19 00:00:00,,,,7.2475,7.2625,6.755,,,,0,20,2
2001-09-20 00:00:00,,,,6.9875,7.245,6.9025,,,,,,
2001-09-21 00:00:00,,,,6.6875,7.145,6.6875,,,,,,
2001-09-24 00:00:00,,,,7.475,7.475,6.775,,,,0,20,2
2001-09-25 00:00:00,,,,6.7524999999999995,6.825,6.575,,,,,,
2001-09-26 00:00:00,,,,6.7475000000000005,6.75,6.545,,,,0,20,2
2001-09-27 00:00:00,,,,6.45,6.925,6.45,,,,0,21,2
2001-09-28 00:00:00,,,,7.0375,7.3525,6.985,,,,,,
2001-10-01 00:00:00,,,,7.1525,7.1825,6.9125,,,,0,21,2
2001-10-02 00:00:00,,,,6.975,7.25,6.975,,,,,,
2001-10-03 00:00:00,,,,7.05,7.45,7.0025,,,,0,21,2
2001-10-04 00:00:00,,,,7.4425,7.9,7.4425,,,,0,21,2
2001-10-05 00:00:00,,,,7.875,7.9325,7.675,,,,0,21,2
2001-10-08 00:00:00,,,,7.855,8.15,7.775,,,,,,
2001-10-09 00:00:00,,,,8.0025,8.1325,7.8275,,,,0,21,2
2001-10-10 00:00:00,,,,8.05,8.5,8.05,,,,0,21,2
2001-10-11 00:00:00,,,,8.5,8.6625,8.3475,,,,,,
2001-10-12 00:00:00,,,,8.5,8.625,8.275,,,,0,21,2
2001-10-15 00:00:00,,,,8.5,8.5,8.0625,,,,,,
2001-10-16 00:00:00,,,,8.25,8.6225,8.25,,,,,,
2001-10-17 00:00:00,,,,8.6475,8.8,8.475,,,,0,21,2
2001-10-18 00:00:00,,,,8.3,8.3625,8.1625,,,,,,
2001-10-19 00:00:00,,,,8.125,8.5525,8.015,,,,,,
2001-10-22 00:00:00,,,,8.375,8.6225,8.3475,,,,0,21,2
2001-10-23 00:00:00,,,,8.5475,8.9425,8.4125,,,,0,21,2
2001-10-24 00:00:00,,,,8.575,8.825,8.43,,,,0,21,2
2001-10-25 00:00:00,,,,8.7225,9.225,8.7,,,,0,22,2
2001-10-26 00:00:00,,,,9.025,9.625,9.025,,,,,,
2001-10-29 00:00:00,,,,9.85,9.85,9.4725,,,,0,22,2
2001-10-30 00:00:00,,,,9.275,9.275,8.7475,,,,0,22,2
2001-10-31 00:00:00,,,,8.8475,9.115,8.5125,,,,0,22,2
2001-11-01 00:00:00,,,,8.775,9.025,8.6625,,,,,,
2001-11-02 00:00:00,,,,8.9425,8.9675,8.6,,,,,,
2001-11-05 00:00:00,,,,8.525,8.6575,8.425,,,,0,22,2
2001-11-06 00:00:00,,,,8.325,8.525,8.225,,,,,,
2001-11-07 00:00:00,,,,8.375,8.8925,8.375,,,,0,23,2
2001-11-08 00:00:00,,,,8.875,9,8.8125,,,,,,
2001-11-09 00:00:00,,,,9.05,9.5,9.025,,,,,,
2001-11-12 00:00:00,,,,9.1,9.1,8.7975,,,,0,23,2
2001-11-13 00:00:00,,,,9.0275,9.065,8.825,,,,,,
2001-11-14 00:00:00,,,,8.75,8.7675,8.4975,,,,0,23,2
2001-11-15 00:00:00,,,,8.25,8.25,7.625,,,,0,23,2
2001-11-16 00:00:00,,,,7.9475,8.245,7.8149999999999995,,,,0,23,2
2001-11-19 00:00:00,,,,8.1325,8.25,7.8774999999999995,,,,0,23,2
2001-11-20 00:00:00,,,,8.35,8.7,8.35,,,,,,
2001-11-21 00:00:00,,,,8.6,8.75,8.44,,,,0,23,2
2001-11-23 00:00:00,,,,8.475,8.825,8.45,,,,,,
2001-11-26 00:00:00,,,,8.66,8.6875,8.475,,,,,,
2001-11-27 00:00:00,,,,8.525,8.85,8.5,,,,,,
2001-11-28 00:00:00,,,,8.475,8.9125,8.325,,,,0,23,2
2001-11-29 00:00:00,,,,8.65,8.8125,8.5875,,,,0,23,2
2001-11-30 00:00:00,,,,8.7925,8.815,8.4475,,,,0,23,2
2001-12-03 00:00:00,,,,8.375,9.05,8.35,,,,0,23,2
2001-12-04 00:00:00,,,,9,9.325,8.9375,,,,,,
2001-12-05 00:00:00,,,,9.75,9.915,9.6025,,,,0,23,2
2001-12-06 00:00:00,,,,9.7775,9.7775,9.5175,,,,,,
2001-12-07 00:00:00,,,,9.5,9.6225,9.38,,,,0,23,2
2001-12-10 00:00:00,,,,9.25,9.4375,9.25,,,,,,
2001-12-11 00:00:00,,,,9.3375,9.34,8.9725,,,,,,
2001-12-12 00:00:00,,,,8.85,8.9175,8.6625,,,,0,22,3
2001-12-13 00:00:00,,,,8.75,8.9725,8.6,,,,,,
2001-12-14 00:00:00,,,,8.85,9.1075,8.745,,,,0,22,3
2001-12-17 00:00:00,,,,9.1375,9.1375,8.915,,,,0,21,4
2001-12-18 00:00:00,,,,8.8,9.2,8.79,,,,0,21,4
2001-12-19 00:00:00,,,,9.1725,9.4325,9.135,,,,0,20,5
2001-12-20 00:00:00,,,,9.325,9.575,9.3,,,,,,
2001-12-21 00:00:00,,,,9.425,9.5,9.3775,,,,,,
2001-12-24 00:00:00,,,,9.5375,9.5725,9.45,,,,,,
2001-12-26 00:00:00,,,,9.7275,9.7825,9.6325,,,,,,
2001-12-27 00:00:00,,,,9.7,9.86,9.6375,,,,,,
2001-12-28 00:00:00,,,,9.7425,9.91,9.7025,,,,,,
2001-12-31 00:00:00,,,,9.75,9.89,9.7,,,,,,
2002-01-02 00:00:00,,,,9.55,9.6025,9.265,,,,0,19,6
2002-01-03 00:00:00,,,,9.475,9.5,9.285,,,,,,
2002-01-04 00:00:00,,,,9.375,9.475,9.2875,,,,0,19,6
2002-01-07 00:00:00,,,,9.4125,9.5975,9.3575,,,,0,18,7
2002-01-08 00:00:00,,,,9.4125,9.5075,9.275,,,,0,18,7
2002-01-09 00:00:00,,,,9.3675,9.425,9.2575,,,,0,18,7
2002-01-10 00:00:00,,,,9.375,9.375,9.195,,,,,,
2002-01-11 00:00:00,,,,9.05,9.125,8.9075,,,,0,18,7
2002-01-14 00:00:00,,,,8.6,8.77,8.525,,,,1,17,8
2002-01-15 00:00:00,,,,8.7,8.8375,8.68,,,,0,17,8
2002-01-16 00:00:00,,,,8.6875,8.725,8.4725,,,,0,17,8
2002-01-17 00:00:00,,,,8.6575,8.6575,8.2775,,,,0,17,8
2002-01-18 00:00:00,,,,8.405,8.4375,8.105,,,,0,17,8
2002-01-22 00:00:00,,,,8.5,8.5,8.125,,,,,,
2002-01-23 00:00:00,,,,8.2,8.4625,8.1675,,,,0,17,8
2002-01-24 00:00:00,,,,8.375,8.5975,8.35,,,,,,
2002-01-25 00:00:00,,,,8.55,8.6575,8.47,,,,,,
2002-01-28 00:00:00,,,,8.6925,8.6925,8.28,,,,,,
2002-01-29 00:00:00,,,,8.2925,8.2925,7.9025,,,,,,
2002-01-30 00:00:00,,,,7.7975,8.32,7.625,,,,0,17,8
2002-01-31 00:00:00,,,,8.355,8.5925,8.295,,,,0,17,8
2002-02-01 00:00:00,,,,8.4975,8.575,8.1925,,,,0,16,8
2002-02-04 00:00:00,,,,8.2825,8.375,8.1375,,,,0,15,9
2002-02-05 00:00:00,,,,8.2825,8.3125,8.0475,,,,,,
2002-02-06 00:00:00,,,,8.26,8.4,8.1275,,,,0,15,9
2002-02-07 00:00:00,,,,8.1375,8.1375,7.9399999999999995,,,,,,
2002-02-08 00:00:00,,,,7.925,8.05,7.79,,,,,,
2002-02-11 00:00:00,,,,8.0225,8.325,7.975,,,,,,
2002-02-12 00:00:00,,,,8.1625,8.225,8.04,,,,,,
2002-02-13 00:00:00,,,,8.0375,8.1625,7.9375,,,,0,15,9
2002-02-14 00:00:00,,,,8.055,8.33,8.01,,,,,,
2002-02-15 00:00:00,,,,8.245,8.25,8.075,,,,0,16,9
2002-02-19 00:00:00,,,,8.075,8.285,8.0075,,,,,,
2002-02-20 00:00:00,,,,8.225,8.2475,8.0175,,,,0,16,9
2002-02-21 00:00:00,,,,8.15,8.4125,8.15,,,,0,16,9
2002-02-22 00:00:00,,,,8.3525,8.5625,8.325,,,,,,
2002-02-25 00:00:00,,,,8.4525,8.7675,8.4525,,,,,,
2002-02-26 00:00:00,,,,8.745,8.7475,8.5625,,,,,,
2002-02-27 00:00:00,,,,8.68,8.725,8.5925,,,,,,
2002-02-28 00:00:00,,,,8.6625,8.925,8.6625,,,,,,
2002-03-01 00:00:00,,,,8.875,8.875,8.675,,,,,,
2002-03-04 00:00:00,,,,8.8125,8.9975,8.8125,,,,,,
2002-03-05 00:00:00,,,,8.975,9.0225,8.8875,,,,,,
2002-03-06 00:00:00,,,,9.125,9.5,9.0325,,,,0,17,8
2002-03-07 00:00:00,,,,9.65,9.9175,9.6225,,,,,,
2002-03-08 00:00:00,,,,9.75,9.825,9.655,,,,0,17,8
2002-03-11 00:00:00,,,,9.875,9.9625,9.775,,,,,,
2002-03-12 00:00:00,,,,9.75,9.895,9.725,,,,,,
2002-03-13 00:00:00,,,,9.925,10.045,9.9,,,,0,17,8
2002-03-14 00:00:00,,,,9.9575,9.9575,9.665,,,,,,
2002-03-15 00:00:00,,,,9.75,9.9,9.7425,,,,0,17,8
2002-03-18 00:00:00,,,,9.9125,9.975,9.8,,,,0,17,8
2002-03-19 00:00:00,,,,10,10.2125,9.9975,,,,,,
2002-03-20 00:00:00,,,,10.1725,10.2475,10.005,,,,,,
2002-03-21 00:00:00,,,,10.03,10.33,10.005,,,,,,
2002-03-22 00:00:00,,,,10.2,10.25,10,,,,,,
2002-03-25 00:00:00,,,,9.9,10.1725,9.88,,,,,,
2002-03-26 00:00:00,,,,9.8875,10.0425,9.765,,,,0,16,9
2002-03-27 00:00:00,,,,9.8725,10.225,9.8725,,,,,,
2002-03-28 00:00:00,,,,10.17,10.255,10.055,,,,0,16,9
2002-04-01 00:00:00,,,,10.215,10.3925,10.215,,,,,,
2002-04-02 00:00:00,,,,10.4725,10.6225,10.4,,,,,,
2002-04-03 00:00:00,,,,10.475,10.475,10.2025,,,,0,16,9
2002-04-04 00:00:00,,,,10.3,10.4675,9.84,,,,0,15,9
2002-04-05 00:00:00,,,,9.99,10.05,9.675,,,,,,
2002-04-08 00:00:00,,,,9.975,10.27,9.9125,,,,,,
2002-04-09 00:00:00,,,,10.06,10.06,9.7275,,,,,,
2002-04-10 00:00:00,,,,9.7575,10.075,9.7375,,,,0,15,9
2002-04-11 00:00:00,,,,9.965,10.17,9.85,,,,,,
2002-04-12 00:00:00,,,,9.775,9.845,9.4325,,,,0,15,9
2002-04-15 00:00:00,,,,9.7,9.87,9.7,,,,,,
2002-04-16 00:00:00,,,,9.775,9.8625,9.7,,,,,,
2002-04-17 00:00:00,,,,9.815,10.0975,9.8,,,,0,15,9
2002-04-18 00:00:00,,,,10.1925,10.265,10.0625,,,,0,15,9
2002-04-19 00:00:00,,,,10.165,10.37,10.05,,,,,,
2002-04-22 00:00:00,,,,10.3025,10.42,10.2625,,,,,,
2002-04-23 00:00:00,,,,10.335,10.58,10.26,,,,0,16,8
2002-04-24 00:00:00,,,,10.25,10.3975,10.2325,,,,0,16,8
2002-04-25 00:00:00,,,,10.2875,10.5625,10.175,,,,,,
2002-04-26 00:00:00,,,,10.46,10.55,10.3875,,,,,,
2002-04-29 00:00:00,,,,10.5275,10.59,10.335,,,,,,
2002-04-30 00:00:00,,,,10.59,10.7375,10.5,,,,0,16,8
2002-05-01 00:00:00,,,,10.325,10.6475,10.3,,,,0,16,10
2002-05-02 00:00:00,,,,10.5625,10.8,10.505,,,,0,16,10
2002-05-03 00:00:00,,,,10.8425,11.025,10.7925,,,,,,
2002-05-06 00:00:00,,,,10.8,10.8,10.5225,,,,,,
2002-05-07 00:00:00,,,,10.575,10.63,10.4375,,,,,,
2002-05-08 00:00:00,,,,10.75,10.8875,10.685,,,,,,
2002-05-09 00:00:00,,,,10.8,10.9025,10.67,,,,0,16,10
2002-05-10 00:00:00,,,,10.73,10.775,10.6475,,,,,,
2002-05-13 00:00:00,,,,10.6125,10.91,10.5775,,,,0,16,10
2002-05-14 00:00:00,,,,11,11.0375,10.895,,,,0,16,10
2002-05-15 00:00:00,,,,10.81,10.8675,10.6125,,,,0,16,11
2002-05-16 00:00:00,,,,10.6525,10.8575,10.6525,,,,,,
2002-05-17 00:00:00,,,,10.6875,10.715,10.4925,,,,,,
2002-05-20 00:00:00,,,,10.5375,10.71,10.48,,,,,,
2002-05-21 00:00:00,,,,10.575,10.7975,10.5625,,,,,,
2002-05-22 00:00:00,,,,10.63,10.7525,10.56,,,,,,
2002-05-23 00:00:00,,,,10.8375,10.8375,10.6575,,,,,,
2002-05-24 00:00:00,,,,10.65,10.7225,10.495,,,,0,15,11
2002-05-28 00:00:00,,,,10.5375,10.5875,10.3775,,,,0,15,11
2002-05-29 00:00:00,,,,10.305,10.4875,10.265,,,,,,
2002-05-30 00:00:00,,,,10.3975,10.4375,10.0975,,,,,,
2002-05-31 00:00:00,,,,10.255,10.4325,10.25,,,,,,
2002-06-03 00:00:00,,,,10.285,10.285,9.94,,,,,,
2002-06-04 00:00:00,,,,10.05,10.075,9.845,,,,,,
2002-06-05 00:00:00,,,,9.825,9.905,9.78,,,,,,
2002-06-06 00:00:00,,,,9.975,10.15,9.7,,,,,,
2002-06-07 00:00:00,,,,9.815,9.985,9.7525,,,,0,15,11
2002-06-10 00:00:00,,,,9.925,9.98,9.6075,,,,,,
2002-06-11 00:00:00,,,,9.65,9.7325,9.3675,,,,0,15,11
2002-06-12 00:00:00,,,,9.5375,9.6075,9.425,,,,,,
2002-06-13 00:00:00,,,,9.5,9.61,9.3625,,,,,,
2002-06-14 00:00:00,,,,9.475,9.615,9.2775,,,,,,
2002-06-17 00:00:00,,,,9.755,9.8625,9.7175,,,,,,
2002-06-18 00:00:00,,,,9.8025,9.875,9.7575,,,,,,
2002-06-19 00:00:00,,,,9.8625,9.9375,9.7,,,,,,
2002-06-20 00:00:00,,,,9.8125,9.9225,9.73,,,,,,
2002-06-21 00:00:00,,,,9.8075,9.85,9.5375,,,,0,15,11
2002-06-24 00:00:00,,,,9.695,9.8325,9.6375,,,,,,
2002-06-25 00:00:00,,,,9.8625,9.935,9.775,,,,0,15,11
2002-06-26 00:00:00,,,,9.7625,9.845,9.6475,,,,,,
2002-06-27 00:00:00,,,,9.8925,9.8925,9.625,,,,0,15,11
2002-06-28 00:00:00,,,,9.8275,9.925,9.785,,,,0,15,11
2002-07-01 00:00:00,,,,9.9,9.92,9.6625,,,,,,
2002-07-02 00:00:00,,,,9.675,9.7475,9.3675,,,,,,
2002-07-03 00:00:00,,,,9.38,9.5675,9.3,,,,,,
2002-07-05 00:00:00,,,,9.4275,9.6225,9.4275,,,,,,
2002-07-08 00:00:00,,,,9.5375,9.5775,9.32,,,,,,
2002-07-09 00:00:00,,,,9.33,9.455,9.2475,,,,0,15,11
2002-07-10 00:00:00,,,,9.35,9.3625,8.955,,,,0,15,11
2002-07-11 00:00:00,,,,8.8875,8.945,8.7525,,,,0,16,10
2002-07-12 00:00:00,,,,8.895,9.0375,8.6825,,,,,,
2002-07-15 00:00:00,,,,8.7375,8.8375,8.44,,,,,,
2002-07-16 00:00:00,,,,8.725,8.915,8.5325,,,,,,
2002-07-17 00:00:00,,,,9.025,9.125,8.6575,,,,0,16,10
2002-07-18 00:00:00,,,,8.75,8.9025,8.7075,,,,0,16,10
2002-07-19 00:00:00,,,,8.69,8.725,8.475,,,,,,
2002-07-22 00:00:00,,,,8.4875,8.5625,7.87,,,,,,
2002-07-23 00:00:00,,,,7.875,8.06,7.7275,,,,,,
2002-07-24 00:00:00,,,,7.5375,8.225,7.505,,,,0,15,10
2002-07-25 00:00:00,,,,8.1625,8.2675,7.7,,,,0,14,11
2002-07-26 00:00:00,,,,7.9,8.1175,7.7775,,,,,,
2002-07-29 00:00:00,,,,8.35,8.5775,8.225,,,,0,14,11
2002-07-30 00:00:00,,,,8.575,8.645,8.32,,,,,,
2002-07-31 00:00:00,,,,8.5625,8.675,8.4425,,,,,,
2002-08-01 00:00:00,,,,8.6725,8.6725,8.2975,,,,0,14,11
2002-08-02 00:00:00,,,,8.245,8.4575,8.15,,,,0,13,11
2002-08-05 00:00:00,,,,8.2675,8.435,7.9675,,,,0,13,11
2002-08-06 00:00:00,,,,8.2,8.385,8.1725,,,,,,
2002-08-07 00:00:00,,,,8.4375,8.4625,8.1825,,,,,,
2002-08-08 00:00:00,,,,8.4375,8.755,8.3625,,,,,,
2002-08-09 00:00:00,,,,8.6875,8.9875,8.5025,,,,,,
2002-08-12 00:00:00,,,,8.8775,9.055,8.6875,,,,,,
2002-08-13 00:00:00,,,,8.815,8.9475,8.615,,,,0,13,11
2002-08-14 00:00:00,,,,8.6625,8.755,8.495,,,,0,13,11
2002-08-15 00:00:00,,,,8.7375,8.99,8.7375,,,,0,13,11
2002-08-16 00:00:00,,,,8.9125,8.9125,8.69,,,,,,
2002-08-19 00:00:00,,,,8.75,8.865,8.63,,,,,,
2002-08-20 00:00:00,,,,8.8125,8.8125,8.555,,,,,,
2002-08-21 00:00:00,,,,8.62,8.7375,8.4875,,,,,,
2002-08-22 00:00:00,,,,8.665,8.9375,8.665,,,,,,
2002-08-23 00:00:00,,,,8.9025,8.9025,8.7525,,,,,,
2002-08-26 00:00:00,,,,8.775,8.925,8.65,,,,,,
2002-08-27 00:00:00,,,,9.0625,9.1,8.905,,,,,,
2002-08-28 00:00:00,,,,8.9525,8.9525,8.7225,,,,,,
2002-08-29 00:00:00,,,,8.6625,8.7625,8.5275,,,,0,13,11
2002-08-30 00:00:00,,,,8.575,8.8175,8.5625,,,,,,
2002-09-03 00:00:00,,,,8.585,8.5875,8.31,,,,,,
2002-09-04 00:00:00,,,,8.4375,8.4775,8.1725,,,,,,
2002-09-05 00:00:00,,,,8.35,8.55,8.34,,,,0,13,11
2002-09-06 00:00:00,,,,8.63,8.75,8.55,,,,0,13,12
2002-09-09 00:00:00,,,,8.6125,8.6975,8.5325,,,,0,13,12
2002-09-10 00:00:00,,,,8.675,8.8475,8.6575,,,,0,13,12
2002-09-11 00:00:00,,,,8.875,8.9375,8.875,,,,,,
2002-09-12 00:00:00,,,,8.875,8.9025,8.7125,,,,0,12,13
2002-09-13 00:00:00,,,,8.7175,8.8675,8.68,,,,,,
2002-09-16 00:00:00,,,,8.805,8.9625,8.74,,,,0,12,13
2002-09-17 00:00:00,,,,8.75,8.8175,8.6275,,,,,,
2002-09-18 00:00:00,,,,8.725,8.8375,8.63,,,,0,11,13
2002-09-19 00:00:00,,,,8.625,8.8,8.555,,,,0,11,13
2002-09-20 00:00:00,,,,8.555,8.6625,8.505,,,,,,
2002-09-23 00:00:00,,,,8.575,8.71,8.48,,,,0,11,13
2002-09-24 00:00:00,,,,8.525,8.525,8.27,,,,0,11,13
2002-09-25 00:00:00,,,,8.37,8.685,8.25,,,,1,11,12
2002-09-26 00:00:00,,,,8.675,8.95,8.6375,,,,1,11,12
2002-09-27 00:00:00,,,,8.81,9.0875,8.795,,,,1,11,12
2002-09-30 00:00:00,,,,8.92,9.0625,8.7275,,,,1,11,12
2002-10-01 00:00:00,,,,8.775,9.0425,8.775,,,,,,
2002-10-02 00:00:00,,,,9,9.4175,8.98,,,,,,
2002-10-03 00:00:00,,,,9,9.125,8.85,,,,,,
2002-10-04 00:00:00,,,,8.975,9.05,8.66,,,,1,11,12
2002-10-07 00:00:00,,,,8.7375,8.9075,8.625,,,,,,
2002-10-08 00:00:00,,,,8.65,8.7075,8.3975,,,,,,
2002-10-09 00:00:00,,,,8.5375,8.56,8.2875,,,,1,11,12
2002-10-10 00:00:00,,,,8.3275,8.36,8.1,,,,1,12,11
2002-10-11 00:00:00,,,,8.415,8.5525,8.34,,,,1,12,11
2002-10-14 00:00:00,,,,8.6675,8.995,8.575,,,,,,
2002-10-15 00:00:00,,,,9.1,9.26,9.1,,,,1,12,11
2002-10-16 00:00:00,,,,9.2175,9.2425,8.9925,,,,,,
2002-10-17 00:00:00,,,,9.31,9.3975,9.1475,,,,1,12,11
2002-10-18 00:00:00,,,,9.3375,9.4275,9.1975,,,,,,
2002-10-21 00:00:00,,,,9.255,9.5625,9.25,,,,1,12,11
2002-10-22 00:00:00,,,,9.2375,9.3125,8.9825,,,,1,12,11
2002-10-23 00:00:00,,,,9.3075,9.7425,9.3,,,,1,12,12
2002-10-24 00:00:00,,,,9.825,9.8325,9.5075,,,,,,
2002-10-25 00:00:00,,,,9.55,9.5525,8.945,,,,,,
2002-10-28 00:00:00,,,,9.31,9.34,8.955,,,,1,11,11
2002-10-29 00:00:00,,,,9.0575,9.0625,8.8225,,,,1,10,11
2002-10-30 00:00:00,,,,8.945,9.44,8.945,,,,,,
2002-10-31 00:00:00,,,,9.4,9.56,9.2,,,,,,
2002-11-01 00:00:00,,,,9.2125,9.455,9.21,,,,,,
2002-11-04 00:00:00,,,,9.48,9.5575,9.365,,,,1,9,12
2002-11-05 00:00:00,,,,9.505,9.55,9.3175,,,,,,
2002-11-06 00:00:00,,,,9.47,9.5275,9.34,,,,,,
2002-11-07 00:00:00,,,,9.5725,9.5725,9.3525,,,,,,
2002-11-08 00:00:00,,,,9.44,9.475,9.305,,,,,,
2002-11-11 00:00:00,,,,9.3475,9.495,9.2275,,,,2,9,12
2002-11-12 00:00:00,,,,9.3075,9.3725,9.1875,,,,,,
2002-11-13 00:00:00,,,,9.1975,9.3375,8.83,,,,,,
2002-11-14 00:00:00,,,,9.0125,9.4175,9.005,,,,,,
2002-11-15 00:00:00,,,,9.1375,9.435,9.1375,,,,2,9,12
2002-11-18 00:00:00,,,,9.5,9.5125,9.3625,,,,2,9,12
2002-11-19 00:00:00,,,,9.4975,9.625,9.4,,,,,,
2002-11-20 00:00:00,,,,9.625,9.975,9.6225,,,,,,
2002-11-21 00:00:00,,,,9.9875,10.1825,9.94,,,,2,10,12
2002-11-22 00:00:00,,,,9.75,9.825,9.595,,,,3,10,11
2002-11-25 00:00:00,,,,9.72,9.72,9.605,,,,3,10,11
2002-11-26 00:00:00,,,,9.6625,9.6625,9.42,,,,3,11,10
2002-11-27 00:00:00,,,,9.4525,9.625,9.4325,,,,,,
2002-11-29 00:00:00,,,,9.645,9.7725,9.6425,,,,,,
2002-12-02 00:00:00,,,,9.865,9.865,9.665,,,,,,
2002-12-03 00:00:00,,,,9.7825,9.9375,9.7075,,,,,,
2002-12-04 00:00:00,,,,9.825,9.825,9.6825,,,,,,
2002-12-05 00:00:00,,,,9.86,9.8625,9.725,,,,,,
2002-12-06 00:00:00,,,,9.79,10,9.7825,,,,,,
2002-12-09 00:00:00,,,,9.965,10.125,9.835,,,,,,
2002-12-10 00:00:00,,,,9.85,10.0625,9.8375,,,,2,12,10
2002-12-11 00:00:00,,,,10.015,10.135,9.9,,,,,,
2002-12-12 00:00:00,,,,10.07,10.435,10.07,,,,,,
2002-12-13 00:00:00,,,,10.4,10.4675,10.25,,,,,,
2002-12-16 00:00:00,,,,10.3525,10.475,10.3225,,,,,,
2002-12-17 00:00:00,,,,10.32,10.3975,10.1675,,,,,,
2002-12-18 00:00:00,,,,10.15,10.1525,9.9525,,,,,,
2002-12-19 00:00:00,,,,9.87,10.04,9.85,,,,2,12,10
2002-12-20 00:00:00,,,,10.125,10.3475,10.1025,,,,2,14,10
2002-12-23 00:00:00,,,,10.3475,10.5,10.2425,,,,,,
2002-12-24 00:00:00,,,,10.4525,10.4575,10.3275,,,,,,
2002-12-26 00:00:00,,,,10.33,10.3875,10.2575,,,,,,
2002-12-27 00:00:00,,,,10.2725,10.3275,10.005,,,,2,14,10
2002-12-30 00:00:00,,,,10.0875,10.1875,9.98,,,,,,
2002-12-31 00:00:00,,,,9.9875,10.025,9.855,,,,,,
2003-01-01 00:00:00,,,,,,,,,,2,14,10
2003-01-02 00:00:00,,,,10.1125,10.29,10.0625,,,,,,
2003-01-03 00:00:00,,,,10.3125,10.3625,10.1925,,,,,,
2003-01-06 00:00:00,,,,10.2175,10.3325,10.1525,,,,2,14,10
2003-01-07 00:00:00,,,,10,10.0025,9.625,,,,,,
2003-01-08 00:00:00,,,,9.65,9.78,9.6,,,,,,
2003-01-09 00:00:00,,,,9.6975,9.825,9.67,,,,2,14,10
2003-01-10 00:00:00,,,,9.7225,9.8375,9.7,,,,2,14,10
2003-01-13 00:00:00,,,,9.835,9.835,9.6,,,,2,14,10
2003-01-14 00:00:00,,,,9.775,9.815,9.71,,,,2,14,10
2003-01-15 00:00:00,,,,9.73,9.92,9.7175,,,,2,14,10
2003-01-16 00:00:00,,,,9.9375,10.04,9.8825,,,,,,
2003-01-17 00:00:00,,,,9.9,9.91,9.77,,,,2,14,10
2003-01-21 00:00:00,,,,9.775,9.775,9.5925,,,,,,
2003-01-22 00:00:00,,,,9.575,9.66,9.375,,,,2,14,10
2003-01-23 00:00:00,,,,9.5875,9.6225,9.45,,,,2,14,9
2003-01-24 00:00:00,,,,9.575,9.58,9.35,,,,2,14,9
2003-01-27 00:00:00,,,,9.2575,9.29,8.925,,,,,,
2003-01-28 00:00:00,,,,9.035,9.3625,9.035,,,,,,
2003-01-29 00:00:00,,,,9.23,9.7,9.2025,,,,,,
2003-01-30 00:00:00,,,,9.625,9.7875,9.455,,,,2,14,9
2003-01-31 00:00:00,,,,9.4775,9.775,9.4075,,,,,,
2003-02-03 00:00:00,,,,9.6925,9.75,9.5875,,,,2,14,9
2003-02-04 00:00:00,,,,9.65,9.995,9.55,,,,2,14,9
2003-02-05 00:00:00,,,,10,10.075,9.91,,,,3,13,9
2003-02-06 00:00:00,,,,9.9125,10.005,9.7975,,,,,,
2003-02-07 00:00:00,,,,9.89,9.965,9.715,,,,,,
2003-02-10 00:00:00,,,,9.825,9.885,9.755,,,,3,13,9
2003-02-11 00:00:00,,,,9.9175,9.995,9.78,,,,,,
2003-02-12 00:00:00,,,,9.825,9.85,9.54,,,,,,
2003-02-13 00:00:00,,,,9.5825,9.625,9.4525,,,,,,
2003-02-14 00:00:00,,,,9.635,9.72,9.56,,,,,,
2003-02-18 00:00:00,,,,9.74,9.8725,9.685,,,,3,13,9
2003-02-19 00:00:00,,,,9.8675,9.94,9.815,,,,,,
2003-02-20 00:00:00,,,,9.9275,10.1225,9.925,,,,,,
2003-02-21 00:00:00,,,,10.05,10.2225,10.05,,,,,,
2003-02-24 00:00:00,,,,10.15,10.42,10.1475,,,,,,
2003-02-25 00:00:00,,,,10.525,10.7075,10.3925,,,,,,
2003-02-26 00:00:00,,,,10.4625,10.6075,10.4,,,,,,
2003-02-27 00:00:00,,,,10.6175,10.6175,10.275,,,,3,13,9
2003-02-28 00:00:00,,,,10.4275,10.555,10.2825,,,,,,
2003-03-03 00:00:00,,,,10.325,10.3625,10.1775,,,,3,14,9
2003-03-04 00:00:00,,,,10.2875,10.365,10.225,,,,,,
2003-03-05 00:00:00,,,,10.2875,10.395,10.2375,,,,3,14,9
2003-03-06 00:00:00,,,,10.3325,10.485,10.33,,,,3,13,10
2003-03-07 00:00:00,,,,10.425,10.525,10.3875,,,,,,
2003-03-10 00:00:00,,,,10.5625,10.7075,10.52,,,,2,13,11
2003-03-11 00:00:00,,,,10.5875,10.655,10.4125,,,,,,
2003-03-12 00:00:00,,,,10.41,10.41,10.1075,,,,2,12,11
2003-03-13 00:00:00,,,,10.3375,10.3375,10.0375,,,,,,
2003-03-14 00:00:00,,,,10.09,10.0975,9.8,,,,,,
2003-03-17 00:00:00,,,,9.935,10.025,9.8175,,,,,,
2003-03-18 00:00:00,,,,9.7,10.0375,9.575,,,,,,
2003-03-19 00:00:00,,,,10.07,10.085,9.91,,,,,,
2003-03-20 00:00:00,,,,9.955,10.1875,9.9525,,,,,,
2003-03-21 00:00:00,,,,10.175,10.175,9.8,,,,,,
2003-03-24 00:00:00,,,,9.835,9.925,9.645,,,,,,
2003-03-25 00:00:00,,,,9.7125,9.9625,9.7125,,,,,,
2003-03-26 00:00:00,,,,9.825,9.825,9.6925,,,,,,
2003-03-27 00:00:00,,,,9.715,9.95,9.68,,,,,,
2003-03-28 00:00:00,,,,9.8675,10.0825,9.8675,,,,2,11,11
2003-03-31 00:00:00,,,,10.0025,10.05,9.88,,,,,,
2003-04-01 00:00:00,,,,9.9525,10.07,9.9225,,,,,,
2003-04-02 00:00:00,,,,10.05,10.05,9.8275,,,,,,
2003-04-03 00:00:00,,,,9.99,9.99,9.685,,,,,,
2003-04-04 00:00:00,,,,9.725,9.7675,9.495,,,,,,
2003-04-07 00:00:00,,,,9.53,9.53,9.39,,,,2,11,11
2003-04-08 00:00:00,,,,9.38,9.38,9.215,,,,,,
2003-04-09 00:00:00,,,,9.2425,9.3375,9.225,,,,,,
2003-04-10 00:00:00,,,,9.5,9.6425,9.45,,,,2,12,10
2003-04-11 00:00:00,,,,9.6125,9.6125,9.4775,,,,2,12,10
2003-04-14 00:00:00,,,,9.5625,9.6125,9.525,,,,,,
2003-04-15 00:00:00,,,,9.5125,9.59,9.4775,,,,,,
2003-04-16 00:00:00,,,,9.6375,9.65,9.4075,,,,,,
2003-04-17 00:00:00,,,,9.4275,9.6975,9.4275,,,,,,
2003-04-21 00:00:00,,,,9.6925,9.805,9.63,,,,2,12,10
2003-04-22 00:00:00,,,,9.7725,9.935,9.6825,,,,,,
2003-04-23 00:00:00,,,,9.895,9.965,9.715,,,,,,
2003-04-24 00:00:00,,,,9.7125,9.8175,9.5575,,,,,,
2003-04-25 00:00:00,,,,9.54,9.56,9.455,,,,,,
2003-04-28 00:00:00,,,,9.5575,9.66,9.4575,,,,,,
2003-04-29 00:00:00,,,,9.475,9.4925,9.145,,,,,,
2003-04-30 00:00:00,,,,9.2375,9.39,9.2375,,,,,,
2003-05-01 00:00:00,,,,9.3225,9.4,9.195,,,,,,
2003-05-02 00:00:00,,,,9.2675,9.3775,9.2625,,,,,,
2003-05-05 00:00:00,,,,9.6,9.6,9.3375,,,,2,12,10
2003-05-06 00:00:00,,,,9.4375,9.4875,9.305,,,,2,12,10
2003-05-07 00:00:00,,,,9.2,9.455,9.1775,,,,,,
2003-05-08 00:00:00,,,,9.3175,9.4175,9.225,,,,,,
2003-05-09 00:00:00,,,,9.31,9.4925,9.2525,,,,,,
2003-05-12 00:00:00,,,,9.5225,9.765,9.445,,,,,,
2003-05-13 00:00:00,,,,9.59,9.815,9.5825,,,,,,
2003-05-14 00:00:00,,,,9.75,9.885,9.7375,,,,,,
2003-05-15 00:00:00,,,,9.995,9.995,9.885,,,,,,
2003-05-16 00:00:00,,,,9.955,10.0325,9.8575,,,,,,
2003-05-19 00:00:00,,,,9.99,10.085,9.9125,,,,,,
2003-05-20 00:00:00,,,,9.955,9.97,9.715,,,,2,12,10
2003-05-21 00:00:00,,,,9.8,10.3375,9.755,,,,,,
2003-05-22 00:00:00,,,,10.28,10.4,10.2675,,,,,,
2003-05-23 00:00:00,,,,10.3225,10.55,10.2875,,,,2,12,10
2003-05-27 00:00:00,,,,10.4975,10.73,10.46,,,,,,
2003-05-28 00:00:00,,,,10.73,10.73,10.565,,,,2,12,10
2003-05-29 00:00:00,,,,10.595,10.6,10.5125,,,,,,
2003-05-30 00:00:00,,,,10.5875,10.775,10.5625,,,,2,13,10
2003-06-02 00:00:00,,,,10.795,11,10.765,,,,,,
2003-06-03 00:00:00,,,,10.87,11.0425,10.7625,,,,,,
2003-06-04 00:00:00,,,,11.0625,11.2075,10.9075,,,,2,13,10
2003-06-05 00:00:00,,,,10.9875,10.995,10.835,,,,,,
2003-06-06 00:00:00,,,,11.0125,11.1875,10.9125,,,,,,
2003-06-09 00:00:00,,,,10.9225,10.9225,10.825,,,,2,13,10
2003-06-10 00:00:00,,,,10.85,10.95,10.775,,,,,,
2003-06-11 00:00:00,,,,10.84,11.3575,10.84,,,,2,13,11
2003-06-12 00:00:00,,,,11.305,11.39,10.8375,,,,2,12,12
2003-06-13 00:00:00,,,,10.8725,10.875,10.4875,,,,2,11,13
2003-06-16 00:00:00,,,,10.645,10.645,10.35,,,,,,
2003-06-17 00:00:00,,,,10.4875,10.565,10.3775,,,,,,
2003-06-18 00:00:00,,,,10.4375,10.5375,10.2625,,,,,,
2003-06-19 00:00:00,,,,10.3925,10.68,10.305,,,,,,
2003-06-20 00:00:00,,,,10.5875,10.59,10.39,,,,,,
2003-06-23 00:00:00,,,,10.45,10.5575,10.3825,,,,,,
2003-06-24 00:00:00,,,,10.5375,10.6125,10.45,,,,2,11,13
2003-06-25 00:00:00,,,,10.5,10.7875,10.435,,,,,,
2003-06-26 00:00:00,,,,10.725,10.8125,10.4775,,,,2,11,13
2003-06-27 00:00:00,,,,10.405,10.55,10.375,,,,,,
2003-06-30 00:00:00,,,,10.6,10.6,10.4225,,,,2,11,13
2003-07-01 00:00:00,,,,10.3925,10.425,10.2275,,,,2,11,13
2003-07-02 00:00:00,,,,10.2875,10.375,10.205,,,,,,
2003-07-03 00:00:00,,,,10.2325,10.445,10.1825,,,,,,
2003-07-07 00:00:00,,,,10.3775,10.3775,10.0025,,,,2,11,13
2003-07-08 00:00:00,,,,10,10.1275,9.94,,,,,,
2003-07-09 00:00:00,,,,10.0725,10.165,10,,,,,,
2003-07-10 00:00:00,,,,10.07,10.0875,9.77,,,,2,11,13
2003-07-11 00:00:00,,,,9.8875,9.9375,9.7825,,,,,,
2003-07-14 00:00:00,,,,9.9025,9.905,9.6275,,,,2,11,13
2003-07-15 00:00:00,,,,9.67,9.7,9.5425,,,,2,12,13
2003-07-16 00:00:00,,,,9.575,9.65,9.4325,,,,,,
2003-07-17 00:00:00,,,,9.4425,9.7375,9.425,,,,2,12,13
2003-07-18 00:00:00,,,,9.8,9.995,9.7775,,,,,,
2003-07-21 00:00:00,,,,9.9375,10.06,9.8325,,,,,,
2003-07-22 00:00:00,,,,9.8375,9.86,9.725,,,,,,
2003-07-23 00:00:00,,,,9.8,9.8875,9.6125,,,,,,
2003-07-24 00:00:00,,,,9.7325,9.855,9.5625,,,,2,12,13
2003-07-25 00:00:00,,,,9.525,9.7525,9.5175,,,,,,
2003-07-28 00:00:00,,,,9.7175,9.8475,9.64,,,,,,
2003-07-29 00:00:00,,,,9.8,9.8025,9.545,,,,,,
2003-07-30 00:00:00,,,,9.7675,9.7675,9.5675,,,,1,12,14
2003-07-31 00:00:00,,,,9.6775,9.8875,9.5925,,,,,,
2003-08-01 00:00:00,,,,9.6625,9.7775,9.5875,,,,,,
2003-08-04 00:00:00,,,,9.65,9.655,9.4675,,,,,,
2003-08-05 00:00:00,,,,9.55,9.7375,9.5025,,,,,,
2003-08-06 00:00:00,,,,9.675,9.8,9.535,,,,1,12,14
2003-08-07 00:00:00,,,,9.8,10.1475,9.7575,,,,1,12,14
2003-08-08 00:00:00,,,,10.1175,10.1175,9.8375,,,,1,12,14
2003-08-11 00:00:00,,,,10.0975,10.2475,10.0675,,,,1,13,13
2003-08-12 00:00:00,,,,10.2875,10.435,10.225,,,,,,
2003-08-13 00:00:00,,,,10.435,10.485,10.365,,,,,,
2003-08-14 00:00:00,,,,10.35,10.4375,10.1075,,,,1,13,13
2003-08-15 00:00:00,,,,10.245,10.4125,10.245,,,,,,
2003-08-18 00:00:00,,,,10.3575,10.4875,10.3575,,,,,,
2003-08-19 00:00:00,,,,10.14,10.2825,10.135,,,,1,12,15
2003-08-20 00:00:00,,,,10.2125,10.3375,10.175,,,,,,
2003-08-21 00:00:00,,,,10.3,10.3875,10.2575,,,,1,12,15
2003-08-22 00:00:00,,,,10.4,10.4725,10.3575,,,,1,12,15
2003-08-25 00:00:00,,,,10.4375,10.475,10.3475,,,,1,12,15
2003-08-26 00:00:00,,,,10.32,10.3675,10.195,,,,,,
2003-08-27 00:00:00,,,,10.3425,10.5125,10.34,,,,,,
2003-08-28 00:00:00,,,,10.4375,10.605,10.375,,,,,,
2003-08-29 00:00:00,,,,10.51,10.61,10.4625,,,,,,
2003-09-02 00:00:00,,,,10.5925,10.625,10.5,,,,,,
2003-09-03 00:00:00,,,,10.6725,10.685,10.5675,,,,1,12,15
2003-09-04 00:00:00,,,,10.5875,10.7175,10.58,,,,,,
2003-09-05 00:00:00,,,,10.585,10.63,10.4075,,,,,,
2003-09-08 00:00:00,,,,10.4225,10.5475,10.4,,,,1,12,14
2003-09-09 00:00:00,,,,10.4975,10.4975,10.375,,,,,,
2003-09-10 00:00:00,,,,10.3425,10.375,10.2425,,,,,,
2003-09-11 00:00:00,,,,10.2925,10.3225,10.115,,,,,,
2003-09-12 00:00:00,,,,10.235,10.2375,10.11,,,,1,12,14
2003-09-15 00:00:00,,,,10.245,10.245,10.1025,,,,1,12,13
2003-09-16 00:00:00,,,,10.3,10.38,10.22,,,,,,
2003-09-17 00:00:00,,,,10.3775,10.385,10.11,,,,,,
2003-09-18 00:00:00,,,,10.2425,10.395,10.1125,,,,1,12,13
2003-09-19 00:00:00,,,,10.375,10.4,10.25,,,,1,12,13
2003-09-22 00:00:00,,,,10.3525,10.4425,10.2375,,,,,,
2003-09-23 00:00:00,,,,10.4175,10.45,10.2375,,,,,,
2003-09-24 00:00:00,,,,10.5125,10.58,10.3875,,,,1,13,12
2003-09-25 00:00:00,,,,10.39,10.45,10.3125,,,,1,13,12
2003-09-26 00:00:00,,,,10.315,10.315,10.0725,,,,,,
2003-09-29 00:00:00,,,,10.1475,10.25,10.1125,,,,,,
2003-09-30 00:00:00,,,,10.2125,10.5025,10.19,,,,1,13,12
2003-10-01 00:00:00,,,,10.36,10.4875,10.345,,,,,,
2003-10-02 00:00:00,,,,10.5,10.5675,10.3975,,,,1,13,12
2003-10-03 00:00:00,,,,10.5675,10.705,10.5125,,,,1,13,12
2003-10-06 00:00:00,,,,10.6825,10.6825,10.57,,,,,,
2003-10-07 00:00:00,,,,10.5475,10.65,10.48,,,,,,
2003-10-08 00:00:00,,,,10.6375,10.675,10.5275,,,,,,
2003-10-09 00:00:00,,,,10.6,10.61,10.4075,,,,,,
2003-10-10 00:00:00,,,,10.525,10.6875,10.525,,,,,,
2003-10-13 00:00:00,,,,10.725,10.7375,10.6275,,,,,,
2003-10-14 00:00:00,,,,10.375,10.6025,10.2725,,,,1,12,13
2003-10-15 00:00:00,,,,10.55,10.5725,10.3325,,,,,,
2003-10-16 00:00:00,,,,10.365,10.52,10.365,,,,1,12,13
2003-10-17 00:00:00,,,,10.475,10.48,10.3675,,,,,,
2003-10-20 00:00:00,,,,10.375,10.395,10.285,,,,1,12,13
2003-10-21 00:00:00,,,,10.385,10.585,10.385,,,,1,12,13
2003-10-22 00:00:00,,,,10.525,10.5925,10.4425,,,,,,
2003-10-23 00:00:00,,,,10.5125,10.5125,10.33,,,,,,
2003-10-24 00:00:00,,,,10.48,10.525,10.395,,,,,,
2003-10-27 00:00:00,,,,10.465,10.5,10.325,,,,,,
2003-10-28 00:00:00,,,,10.34,10.38,10.2225,,,,,,
2003-10-29 00:00:00,,,,10.2925,10.44,10.275,,,,,,
2003-10-30 00:00:00,,,,10.425,10.49,10.28,,,,,,
2003-10-31 00:00:00,,,,10.275,10.61,10.2125,,,,,,
2003-11-03 00:00:00,,,,10.56,10.6375,10.4625,,,,,,
2003-11-04 00:00:00,,,,10.6175,10.6175,10.37,,,,1,12,13
2003-11-05 00:00:00,,,,10.475,10.525,10.3925,,,,1,12,13
2003-11-06 00:00:00,,,,10.425,10.4775,10.315,,,,,,
2003-11-07 00:00:00,,,,10.475,10.485,10.4,,,,,,
2003-11-10 00:00:00,,,,10.4375,10.4925,10.375,,,,1,12,13
2003-11-11 00:00:00,,,,10.4725,10.49,10.395,,,,,,
2003-11-12 00:00:00,,,,10.4725,10.665,10.4375,,,,,,
2003-11-13 00:00:00,,,,10.71,10.7875,10.6,,,,,,
2003-11-14 00:00:00,,,,10.7525,10.915,10.6875,,,,,,
2003-11-17 00:00:00,,,,10.6875,10.7075,10.535,,,,,,
2003-11-18 00:00:00,,,,10.6625,10.685,10.565,,,,,,
2003-11-19 00:00:00,,,,10.7075,10.7075,10.62,,,,1,12,13
2003-11-20 00:00:00,,,,10.6475,10.725,10.5975,,,,,,
2003-11-21 00:00:00,,,,10.6875,10.6875,10.4875,,,,1,12,13
2003-11-24 00:00:00,,,,10.4875,10.5,10.4,,,,,,
2003-11-25 00:00:00,,,,10.45,10.4975,10.405,,,,,,
2003-11-26 00:00:00,,,,10.4875,10.4875,10.425,,,,,,
2003-11-28 00:00:00,,,,10.505,10.525,10.43,,,,,,
2003-12-01 00:00:00,,,,10.5,10.635,10.4875,,,,1,12,13
2003-12-02 00:00:00,,,,10.6375,10.7325,10.6275,,,,,,
2003-12-03 00:00:00,,,,10.6975,10.71,10.565,,,,1,11,14
2003-12-04 00:00:00,,,,10.55,11.25,10.55,,,,1,11,14
2003-12-05 00:00:00,,,,11.1875,11.25,11.09,,,,1,11,14
2003-12-08 00:00:00,,,,11.1575,11.2225,11.075,,,,,,
2003-12-09 00:00:00,,,,11.215,11.3,11.215,,,,1,12,13
2003-12-10 00:00:00,,,,11.3025,11.3225,11.195,,,,,,
2003-12-11 00:00:00,,,,11.2,11.2875,11.1475,,,,,,
2003-12-12 00:00:00,,,,11.3375,11.435,11.2825,,,,,,
2003-12-15 00:00:00,,,,11.37,11.3725,11.2675,,,,,,
2003-12-16 00:00:00,,,,11.2925,11.49,11.2925,,,,,,
2003-12-17 00:00:00,,,,11.3975,11.5675,11.3475,,,,,,
2003-12-18 00:00:00,,,,11.5875,11.88,11.565,,,,1,12,13
2003-12-19 00:00:00,,,,11.74,11.795,11.625,,,,1,12,13
2003-12-22 00:00:00,,,,11.725,11.725,11.5425,,,,1,11,14
2003-12-23 00:00:00,,,,11.6,11.6025,11.3975,,,,,,
2003-12-24 00:00:00,,,,11.5275,11.775,11.5125,,,,,,
2003-12-26 00:00:00,,,,11.6875,11.7375,11.655,,,,,,
2003-12-29 00:00:00,,,,11.715,11.82,11.6225,,,,,,
2003-12-30 00:00:00,,,,11.795,11.85,11.7,,,,,,
2003-12-31 00:00:00,,,,11.7375,11.755,11.4775,,,,,,
2004-01-02 00:00:00,,,,11.5125,11.525,11.35,,,,,,
2004-01-05 00:00:00,,,,11.505,11.6525,11.4425,,,,2,11,13
2004-01-06 00:00:00,,,,11.7425,11.775,11.5325,,,,,,
2004-01-07 00:00:00,,,,11.5875,11.5875,11.4325,,,,,,
2004-01-08 00:00:00,,,,11.5125,11.5375,11.3275,,,,,,
2004-01-09 00:00:00,,,,11.425,11.625,11.3625,,,,,,
2004-01-12 00:00:00,,,,11.485,11.485,11.3,,,,2,10,13
2004-01-13 00:00:00,,,,11.35,11.5525,11.325,,,,,,
2004-01-14 00:00:00,,,,11.475,11.56,11.4275,,,,2,10,13
2004-01-15 00:00:00,,,,11.63,11.75,11.1225,,,,,,
2004-01-16 00:00:00,,,,11.2,11.3525,11.1725,,,,,,
2004-01-20 00:00:00,,,,11.3925,11.7375,11.3925,,,,,,
2004-01-21 00:00:00,,,,11.6625,11.72,11.525,,,,,,
2004-01-22 00:00:00,,,,11.625,11.6925,11.2875,,,,,,
2004-01-23 00:00:00,,,,11.565,11.8625,11.565,,,,,,
2004-01-26 00:00:00,,,,11.6725,11.7375,11.4925,,,,2,9,13
2004-01-27 00:00:00,,,,11.7625,11.8125,11.585,,,,,,
2004-01-28 00:00:00,,,,11.6225,11.64,11.445,,,,,,
2004-01-29 00:00:00,,,,11.475,11.475,11.2375,,,,,,
2004-01-30 00:00:00,,,,11.2975,11.35,11.2025,,,,,,
2004-02-02 00:00:00,,,,11.2975,11.44,11.16,,,,2,8,14
2004-02-03 00:00:00,,,,11.275,11.455,11.25,,,,,,
2004-02-04 00:00:00,,,,11.325,11.3575,11.045,,,,,,
2004-02-05 00:00:00,,,,11.04,11.0425,10.6125,,,,2,8,14
2004-02-06 00:00:00,,,,10.825,10.9325,10.635,,,,2,7,15
2004-02-09 00:00:00,,,,10.7825,10.9525,10.78,,,,,,
2004-02-10 00:00:00,,,,10.8525,10.9625,10.75,,,,2,7,15
2004-02-11 00:00:00,,,,10.88,10.8875,10.7525,,,,,,
2004-02-12 00:00:00,,,,10.82,11.0675,10.82,,,,,,
2004-02-13 00:00:00,,,,10.925,11.0225,10.88,,,,2,7,15
2004-02-17 00:00:00,,,,10.955,11.04,10.955,,,,,,
2004-02-18 00:00:00,,,,10.955,11.0125,10.85,,,,,,
2004-02-19 00:00:00,,,,10.885,10.9675,10.78,,,,2,7,15
2004-02-20 00:00:00,,,,10.8025,10.82,10.6125,,,,,,
2004-02-23 00:00:00,,,,10.7875,10.8325,10.695,,,,,,
2004-02-24 00:00:00,,,,10.75,10.8625,10.705,,,,,,
2004-02-25 00:00:00,,,,10.8125,10.9675,10.77,,,,2,7,15
2004-02-26 00:00:00,,,,10.93,11.06,10.8875,,,,,,
2004-02-27 00:00:00,,,,11,11.185,10.9825,,,,,,
2004-03-01 00:00:00,,,,11.1875,11.325,11.12,,,,,,
2004-03-02 00:00:00,,,,11.2625,11.47,11.2625,,,,,,
2004-03-03 00:00:00,,,,11.275,11.46,11.15,,,,2,7,15
2004-03-04 00:00:00,,,,11.375,11.39,11.09,,,,2,7,15
2004-03-05 00:00:00,,,,11.25,11.4525,11.2375,,,,,,
2004-03-08 00:00:00,,,,11.4625,11.5725,11.3825,,,,,,
2004-03-09 00:00:00,,,,11.325,11.4125,11.2225,,,,,,
2004-03-10 00:00:00,,,,11.385,11.385,11.1125,,,,,,
2004-03-11 00:00:00,,,,11.065,11.1125,10.9225,,,,,,
2004-03-12 00:00:00,,,,10.9425,11.17,10.94,,,,2,7,15
2004-03-15 00:00:00,,,,11.19,11.3225,11.19,,,,,,
2004-03-16 00:00:00,,,,11.34,11.3475,11.2025,,,,2,7,16
2004-03-17 00:00:00,,,,11.295,11.52,11.2775,,,,,,
2004-03-18 00:00:00,,,,11.37,11.425,11.2425,,,,2,8,15
2004-03-19 00:00:00,,,,11.325,11.3725,11.165,,,,,,
2004-03-22 00:00:00,,,,11.1825,11.315,11.085,,,,,,
2004-03-23 00:00:00,,,,11.2675,11.2825,11.1,,,,2,8,15
2004-03-24 00:00:00,,,,11.2325,11.2325,10.8275,,,,,,
2004-03-25 00:00:00,,,,10.9,10.9475,10.82,,,,,,
2004-03-26 00:00:00,,,,10.85,11.0925,10.85,,,,2,8,15
2004-03-29 00:00:00,,,,11.015,11.18,11.015,,,,,,
2004-03-30 00:00:00,,,,11.1525,11.4225,11.1425,,,,,,
2004-03-31 00:00:00,,,,11.36,11.4725,11.275,,,,2,8,15
2004-04-01 00:00:00,,,,11.4875,11.57,11.33,,,,,,
2004-04-02 00:00:00,,,,11.5125,11.5475,11.41,,,,2,8,15
2004-04-05 00:00:00,,,,11.5,11.53,11.4025,,,,,,
2004-04-06 00:00:00,,,,11.465,11.535,11.4275,,,,2,8,15
2004-04-07 00:00:00,,,,11.4775,11.6,11.435,,,,,,
2004-04-08 00:00:00,,,,11.6,11.7725,11.565,,,,,,
2004-04-12 00:00:00,,,,11.7675,12.1125,11.7675,,,,,,
2004-04-13 00:00:00,,,,11.97,12.04,11.8375,,,,,,
2004-04-14 00:00:00,,,,11.77,11.8975,11.67,,,,,,
2004-04-15 00:00:00,,,,12,12.2125,12,,,,2,8,15
2004-04-16 00:00:00,,,,12.2875,12.3225,12.2075,,,,2,8,15
2004-04-19 00:00:00,,,,12.3575,12.5225,12.345,,,,,,
2004-04-20 00:00:00,,,,12.5,12.5,12.255,,,,,,
2004-04-21 00:00:00,,,,12.1875,12.25,12.04,,,,2,8,16
2004-04-22 00:00:00,,,,12.075,12.26,12.01,,,,,,
2004-04-23 00:00:00,,,,12.225,12.2375,12.0575,,,,,,
2004-04-26 00:00:00,,,,12.22,12.3575,12.22,,,,,,
2004-04-27 00:00:00,,,,12.3875,12.6975,12.3875,,,,1,8,16
2004-04-28 00:00:00,,,,12.6075,12.64,12.48,,,,,,
2004-04-29 00:00:00,,,,12.3825,12.445,12.1675,,,,,,
2004-04-30 00:00:00,,,,12.2625,12.45,12.215,,,,,,
2004-05-03 00:00:00,,,,12.3625,13.0375,12.2775,,,,1,10,14
2004-05-04 00:00:00,,,,13.45,13.6875,13.3575,,,,1,12,12
2004-05-05 00:00:00,,,,13.475,13.5525,13.3225,,,,1,11,12
2004-05-06 00:00:00,,,,13.5025,13.6025,13.295,,,,1,11,12
2004-05-07 00:00:00,,,,13.5475,13.67,13.4525,,,,,,
2004-05-10 00:00:00,,,,13.2775,13.2775,12.875,,,,,,
2004-05-11 00:00:00,,,,13.1125,13.2475,13.0375,,,,,,
2004-05-12 00:00:00,,,,13.1325,13.3575,13.04,,,,,,
2004-05-13 00:00:00,,,,13.225,13.3375,13.145,,,,1,11,12
2004-05-14 00:00:00,,,,13.3625,13.65,13.35,,,,,,
2004-05-17 00:00:00,,,,13.5425,13.82,13.5425,,,,1,11,12
2004-05-18 00:00:00,,,,13.6625,13.6875,13.375,,,,,,
2004-05-19 00:00:00,,,,13.465,13.5225,13.225,,,,1,11,12
2004-05-20 00:00:00,,,,13.25,13.365,13.1075,,,,1,11,12
2004-05-21 00:00:00,,,,13.275,13.28,13.01,,,,,,
2004-05-24 00:00:00,,,,13.2125,13.4975,13.175,,,,,,
2004-05-25 00:00:00,,,,13.38,13.6525,13.3725,,,,,,
2004-05-26 00:00:00,,,,13.7,13.76,13.51,,,,,,
2004-05-27 00:00:00,,,,13.5025,13.5025,13.245,,,,,,
2004-05-28 00:00:00,,,,13.335,13.565,13.325,,,,,,
2004-06-01 00:00:00,,,,13.5,13.745,13.485,,,,,,
2004-06-02 00:00:00,,,,13.75,13.7975,13.4375,,,,1,11,12
2004-06-03 00:00:00,,,,13.4575,13.585,13.19,,,,1,11,12
2004-06-04 00:00:00,,,,13.2025,13.2025,12.9575,,,,,,
2004-06-07 00:00:00,,,,13.0425,13.36,12.9575,,,,,,
2004-06-08 00:00:00,,,,13.345,13.495,13.2075,,,,1,11,12
2004-06-09 00:00:00,,,,13.205,13.2325,13.01,,,,,,
2004-06-10 00:00:00,,,,13.4,13.6675,13.3975,,,,1,12,11
2004-06-14 00:00:00,,,,13.625,13.805,13.4975,,,,1,12,9
2004-06-15 00:00:00,,,,13.79,14.145,13.78,,,,,,
2004-06-16 00:00:00,,,,14.25,14.6,14.23,,,,,,
2004-06-17 00:00:00,,,,14.5325,14.63,14.38,,,,,,
2004-06-18 00:00:00,,,,14.5075,14.595,14.46,,,,,,
2004-06-21 00:00:00,,,,14.5625,14.595,14.44,,,,1,12,9
2004-06-22 00:00:00,,,,14.5875,14.775,14.5375,,,,,,
2004-06-23 00:00:00,,,,14.875,15.2975,14.8225,,,,,,
2004-06-24 00:00:00,,,,15.315,15.45,15.15,,,,,,
2004-06-25 00:00:00,,,,15.25,15.32,15.0225,,,,,,
2004-06-28 00:00:00,,,,15.0875,15.0875,14.6525,,,,,,
2004-06-29 00:00:00,,,,14.6625,14.9,14.6625,,,,1,12,9
2004-06-30 00:00:00,,,,14.8975,14.995,14.8125,,,,1,12,10
2004-07-01 00:00:00,,,,14.965,15.1675,14.93,,,,,,
2004-07-02 00:00:00,,,,15.1375,15.3425,15.075,,,,,,
2004-07-06 00:00:00,,,,15.3375,15.6025,15.3375,,,,,,
2004-07-07 00:00:00,,,,15.4075,15.5875,15.3025,,,,1,12,10
2004-07-08 00:00:00,,,,15.6025,15.7025,15.31,,,,1,12,10
2004-07-09 00:00:00,,,,15.535,15.7275,15.4875,,,,1,12,11
2004-07-12 00:00:00,,,,15.6375,15.64,15.455,,,,1,12,11
2004-07-13 00:00:00,,,,15.5775,15.5775,15.38,,,,1,11,12
2004-07-14 00:00:00,,,,15.4125,15.6675,15.4,,,,,,
2004-07-15 00:00:00,,,,15.625,15.8,15.485,,,,1,11,12
2004-07-16 00:00:00,,,,15.8625,15.8975,15.8,,,,1,11,12
2004-07-19 00:00:00,,,,15.82,15.8725,15.675,,,,,,
2004-07-20 00:00:00,,,,15.81,15.82,15.6275,,,,,,
2004-07-21 00:00:00,,,,15.7225,15.7875,15.2375,,,,,,
2004-07-22 00:00:00,,,,15.3025,15.4825,15.1925,,,,1,11,12
2004-07-23 00:00:00,,,,15.25,15.34,15.1675,,,,,,
2004-07-26 00:00:00,,,,15.1925,15.3025,14.8525,,,,,,
2004-07-27 00:00:00,,,,14.905,15.3525,14.825,,,,2,11,12
2004-07-28 00:00:00,,,,15.315,15.6525,15.275,,,,,,
2004-07-29 00:00:00,,,,15.6525,15.785,15.455,,,,,,
2004-07-30 00:00:00,,,,15.8025,15.95,15.775,,,,,,
2004-08-02 00:00:00,,,,15.8875,15.98,15.55,,,,,,
2004-08-03 00:00:00,,,,15.9375,16.525,15.9375,,,,2,11,12
2004-08-04 00:00:00,,,,16.2225,16.2225,15.2975,,,,1,10,14
2004-08-05 00:00:00,,,,15.3525,15.4125,14.9325,,,,,,
2004-08-06 00:00:00,,,,15.0625,15.075,14.545,,,,,,
2004-08-09 00:00:00,,,,14.625,15.05,14.625,,,,,,
2004-08-10 00:00:00,,,,14.875,14.975,14.73,,,,,,
2004-08-11 00:00:00,,,,14.81,14.8625,14.4125,,,,,,
2004-08-12 00:00:00,,,,14.555,14.73,14.2625,,,,,,
2004-08-13 00:00:00,,,,14.3125,14.495,14.3075,,,,,,
2004-08-16 00:00:00,,,,14.3575,14.5275,14.3075,,,,,,
2004-08-17 00:00:00,,,,13.875,14.02,13.8475,,,,,,
2004-08-18 00:00:00,,,,13.9125,14.09,13.9125,,,,,,
2004-08-19 00:00:00,,,,14.095,14.2625,13.975,,,,,,
2004-08-20 00:00:00,,,,14.35,14.55,14.28,,,,1,10,13
2004-08-23 00:00:00,,,,14.3,14.4075,14.0375,,,,,,
2004-08-24 00:00:00,,,,14.1025,14.1025,13.85,,,,,,
2004-08-25 00:00:00,,,,14.1,14.2825,13.9475,,,,,,
2004-08-26 00:00:00,,,,14,14.2725,13.8,,,,,,
2004-08-27 00:00:00,,,,14.2575,14.3975,14.2475,,,,,,
2004-08-30 00:00:00,,,,14.2575,14.4425,14.125,,,,,,
2004-08-31 00:00:00,,,,14.2475,14.47,14.225,,,,,,
2004-09-01 00:00:00,,,,14.475,14.765,14.4375,,,,1,10,13
2004-09-02 00:00:00,,,,14.7625,14.865,14.6025,,,,,,
2004-09-03 00:00:00,,,,14.73,14.7475,14.625,,,,,,
2004-09-07 00:00:00,,,,14.685,14.745,14.4425,,,,,,
2004-09-08 00:00:00,,,,14.855,14.9,14.7125,,,,,,
2004-09-09 00:00:00,,,,14.75,14.94,14.7025,,,,,,
2004-09-10 00:00:00,,,,14.9225,14.97,14.7675,,,,,,
2004-09-13 00:00:00,,,,15.15,15.3675,15.11,,,,,,
2004-09-14 00:00:00,,,,15.3625,15.8425,15.3575,,,,,,
2004-09-15 00:00:00,,,,15.775,15.9175,15.67,,,,,,
2004-09-16 00:00:00,,,,15.67,15.8275,15.5625,,,,,,
2004-09-17 00:00:00,,,,15.8475,15.97,15.8475,,,,,,
2004-09-20 00:00:00,,,,15.945,16.02,15.8325,,,,1,10,12
2004-09-21 00:00:00,,,,15.8975,16.4075,15.8425,,,,1,10,12
2004-09-22 00:00:00,,,,16.3525,16.3525,16.1,,,,,,
2004-09-23 00:00:00,,,,16.1225,16.1225,15.9175,,,,1,10,13
2004-09-24 00:00:00,,,,16.1,16.29,16.065,,,,,,
2004-09-27 00:00:00,,,,16.275,16.355,15.95,,,,1,9,14
2004-09-28 00:00:00,,,,16.3,16.53,16.2725,,,,,,
2004-09-29 00:00:00,,,,16.465,16.7175,16.1625,,,,,,
2004-09-30 00:00:00,,,,16.2425,16.565,16.2425,,,,,,
2004-10-01 00:00:00,,,,16.4625,16.8625,16.365,,,,1,11,12
2004-10-04 00:00:00,,,,16.8025,16.9725,16.6925,,,,1,11,12
2004-10-05 00:00:00,,,,17.05,17.42,17.05,,,,1,11,12
2004-10-06 00:00:00,,,,17.4,17.6375,17.4,,,,,,
2004-10-07 00:00:00,,,,17.875,18.12,17.3725,,,,1,11,13
2004-10-08 00:00:00,,,,17.4175,17.59,17.23,,,,1,11,13
2004-10-11 00:00:00,,,,17.4275,17.4525,17.195,,,,,,
2004-10-12 00:00:00,,,,17.345,17.465,17.035,,,,,,
2004-10-13 00:00:00,,,,16.7625,16.7625,16.22,,,,,,
2004-10-14 00:00:00,,,,16.475,16.8275,16.475,,,,,,
2004-10-15 00:00:00,,,,16.725,16.825,16.5425,,,,,,
2004-10-18 00:00:00,,,,16.675,16.7625,16.415,,,,,,
2004-10-19 00:00:00,,,,16.45,16.605,16.3875,,,,,,
2004-10-20 00:00:00,,,,16.5625,17.1,16.5625,,,,,,
2004-10-21 00:00:00,,,,17.2125,17.2775,16.98,,,,,,
2004-10-22 00:00:00,,,,17.3125,17.3875,17.1575,,,,,,
2004-10-25 00:00:00,,,,17.225,17.355,17.09,,,,,,
2004-10-26 00:00:00,,,,17.2225,17.4675,17.07,,,,,,
2004-10-27 00:00:00,,,,17.5125,17.8125,16.625,,,,1,11,14
2004-10-28 00:00:00,,,,16.5625,16.8125,16.2575,,,,1,11,14
2004-10-29 00:00:00,,,,16.2825,16.65,16.235,,,,,,
2004-11-01 00:00:00,,,,16.775,16.945,16.2775,,,,1,11,14
2004-11-02 00:00:00,,,,16.465,16.5475,16.0375,,,,,,
2004-11-03 00:00:00,,,,16.425,16.52,16.1925,,,,,,
2004-11-04 00:00:00,,,,16.625,16.8975,16.5225,,,,1,12,13
2004-11-05 00:00:00,,,,16.775,17.0825,16.7725,,,,,,
2004-11-08 00:00:00,,,,16.845,16.9,16.2625,,,,,,
2004-11-09 00:00:00,,,,16.25,16.4,16.0725,,,,,,
2004-11-10 00:00:00,,,,16.37,16.5425,16.1625,,,,,,
2004-11-11 00:00:00,,,,16.535,16.5625,16.3425,,,,,,
2004-11-12 00:00:00,,,,16.3825,17.125,16.32,,,,1,13,13
2004-11-15 00:00:00,,,,17.095,17.095,16.565,,,,,,
2004-11-16 00:00:00,,,,16.905,17.0125,16.635,,,,,,
2004-11-17 00:00:00,,,,16.9125,17.0575,16.8,,,,,,
2004-11-18 00:00:00,,,,17.025,17.35,16.945,,,,,,
2004-11-19 00:00:00,,,,17.385,18.065,17.365,,,,,,
2004-11-22 00:00:00,,,,17.9925,18.415,17.97,,,,,,
2004-11-23 00:00:00,,,,18.38,18.68,18.3375,,,,,,
2004-11-24 00:00:00,,,,18.5125,18.9125,18.31,,,,1,13,13
2004-11-26 00:00:00,,,,18.87,19.125,18.815,,,,,,
2004-11-29 00:00:00,,,,19.0125,19.0325,18.6375,,,,,,
2004-11-30 00:00:00,,,,18.6,18.7725,18.5075,,,,1,11,15
2004-12-01 00:00:00,,,,18.7675,18.8375,18.1875,,,,1,11,15
2004-12-02 00:00:00,,,,18.275,18.275,17.35,,,,,,
2004-12-03 00:00:00,,,,17.4625,18.07,17.4625,,,,,,
2004-12-06 00:00:00,,,,18.125,18.1475,17.7925,,,,,,
2004-12-07 00:00:00,,,,17.8125,17.875,17.395,,,,,,
2004-12-08 00:00:00,,,,17.395,17.74,17.0925,,,,,,
2004-12-09 00:00:00,,,,17.6925,17.9,17.555,,,,,,
2004-12-10 00:00:00,,,,17.89,17.9,17.36,,,,,,
2004-12-13 00:00:00,,,,17.4875,17.89,17.475,,,,,,
2004-12-14 00:00:00,,,,17.9525,18.07,17.805,,,,,,
2004-12-15 00:00:00,,,,18.0625,18.385,17.88,,,,,,
2004-12-16 00:00:00,,,,18.275,18.275,17.9125,,,,,,
2004-12-17 00:00:00,,,,18,18.3075,18,,,,,,
2004-12-20 00:00:00,,,,18.2875,18.4375,18.25,,,,,,
2004-12-21 00:00:00,,,,18.365,18.5475,18.3375,,,,,,
2004-12-22 00:00:00,,,,18.4875,18.525,17.8875,,,,,,
2004-12-23 00:00:00,,,,18.0025,18.25,17.985,,,,,,
2004-12-27 00:00:00,,,,18.1,18.1,17.5775,,,,,,
2004-12-28 00:00:00,,,,17.625,17.84,17.625,,,,,,
2004-12-29 00:00:00,,,,17.875,17.93,17.705,,,,,,
2004-12-30 00:00:00,,,,17.7625,17.875,17.65,,,,,,
2004-12-31 00:00:00,,,,17.775,17.915,17.73,,,,,,
2005-01-03 00:00:00,,,,17.84,17.84,16.5375,,,,,,
2005-01-04 00:00:00,,,,16.6775,16.85,16.325,,,,,,
2005-01-05 00:00:00,,,,16.375,16.475,16.055,,,,,,
2005-01-06 00:00:00,,,,16.2375,16.75,16.0475,,,,,,
2005-01-07 00:00:00,,,,16.4875,16.4875,16.1475,,,,,,
2005-01-10 00:00:00,,,,16.55,16.8625,16.5375,,,,,,
2005-01-11 00:00:00,,,,16.7125,16.82,16.515,,,,,,
2005-01-12 00:00:00,,,,16.7575,16.995,16.525,,,,,,
2005-01-13 00:00:00,,,,17.0375,17.3275,16.95,,,,,,
2005-01-14 00:00:00,,,,17.1375,17.5275,17.07,,,,,,
2005-01-18 00:00:00,,,,17.7,18,17.7,,,,1,11,15
2005-01-19 00:00:00,,,,17.9025,18.055,17.7125,,,,,,
2005-01-20 00:00:00,,,,17.625,17.905,17.405,,,,1,11,15
2005-01-21 00:00:00,,,,18.1125,18.12,17.8525,,,,1,11,14
2005-01-24 00:00:00,,,,18.0375,18.1425,18.02,,,,1,12,13
2005-01-25 00:00:00,,,,18.0975,18.2225,17.87,,,,1,12,13
2005-01-26 00:00:00,,,,18.0875,18.27,17.95,,,,,,
2005-01-27 00:00:00,,,,18.2375,18.5975,18.175,,,,,,
2005-01-28 00:00:00,,,,18.395,18.52,18.265,,,,1,12,12
2005-01-31 00:00:00,,,,18.5,18.7,18.3175,,,,1,13,11
2005-02-01 00:00:00,,,,18.6875,19.025,18.6825,,,,,,
2005-02-02 00:00:00,,,,19,19.155,18.9225,,,,1,13,11
2005-02-03 00:00:00,,,,19.625,19.675,18.98,,,,1,13,11
2005-02-04 00:00:00,,,,19.35,19.375,19.04,,,,1,13,11
2005-02-07 00:00:00,,,,19.1625,19.25,18.9475,,,,,,
2005-02-08 00:00:00,,,,19.2375,19.545,19.06,,,,1,13,11
2005-02-09 00:00:00,,,,19.3875,19.7875,19.1675,,,,,,
2005-02-10 00:00:00,,,,19.7375,20.0575,19.6775,,,,,,
2005-02-11 00:00:00,,,,20,20.4025,19.8775,,,,,,
2005-02-14 00:00:00,,,,20.325,20.5625,20.325,,,,,,
2005-02-15 00:00:00,,,,20.5375,20.7225,20.365,,,,,,
2005-02-16 00:00:00,,,,20.5625,21.325,20.5625,,,,,,
2005-02-17 00:00:00,,,,21.3625,21.4125,20.8175,,,,,,
2005-02-18 00:00:00,,,,20.9625,21.5275,20.945,,,,,,
2005-02-22 00:00:00,,,,21.555,22.0825,21.555,,,,1,13,11
2005-02-23 00:00:00,,,,21.575,21.7875,21.545,,,,,,
2005-02-24 00:00:00,,,,21.725,22.0825,21.6175,,,,,,
2005-02-25 00:00:00,,,,22.085,22.9375,22.085,,,,1,13,11
2005-02-28 00:00:00,,,,22.925,23.325,22.305,,,,1,13,12
2005-03-01 00:00:00,,,,22.6,22.7,21.8675,,,,1,14,12
2005-03-02 00:00:00,,,,21.985,22.6,21.895,,,,1,14,12
2005-03-03 00:00:00,,,,22.85,23.3,22.68,,,,1,14,12
2005-03-04 00:00:00,,,,22.94,23.6,22.8,,,,1,14,12
2005-03-07 00:00:00,,,,23.25,23.325,22.72,,,,,,
2005-03-08 00:00:00,,,,23,23.58,23,,,,1,14,12
2005-03-09 00:00:00,,,,23.7,24.205,23.26,,,,,,
2005-03-10 00:00:00,,,,23,23.005,22.035,,,,1,14,12
2005-03-11 00:00:00,,,,22.43,22.9,22.36,,,,,,
2005-03-14 00:00:00,,,,22.775,22.925,22.245,,,,,,
2005-03-15 00:00:00,,,,22.825,23.185,22.43,,,,,,
2005-03-16 00:00:00,,,,22.44,23.04,22.085,,,,,,
2005-03-17 00:00:00,,,,22.75,23.29,22.75,,,,1,14,12
2005-03-18 00:00:00,,,,24,24.215,23.75,,,,1,15,11
2005-03-21 00:00:00,,,,24.105,24.11,23.485,,,,,,
2005-03-22 00:00:00,,,,23.83,24.105,23.245,,,,1,15,11
2005-03-23 00:00:00,,,,23.135,23.135,22.225,,,,1,15,11
2005-03-24 00:00:00,,,,22.585,23.185,22.455,,,,,,
2005-03-28 00:00:00,,,,22.75,23.02,22.47,,,,,,
2005-03-29 00:00:00,,,,22.64,23.115,22.35,,,,,,
2005-03-30 00:00:00,,,,22.45,23.19,22.05,,,,,,
2005-03-31 00:00:00,,,,23.875,24.42,23.825,,,,,,
2005-04-01 00:00:00,,,,24.625,25.16,24.55,,,,1,16,11
2005-04-04 00:00:00,,,,25.335,26.25,24.68,,,,,,
2005-04-05 00:00:00,,,,25.035,25.475,24.725,,,,,,
2005-04-06 00:00:00,,,,24.95,25.205,24.455,,,,1,15,12
2005-04-07 00:00:00,,,,25.45,25.48,24.225,,,,,,
2005-04-08 00:00:00,,,,24.45,24.5,23.58,,,,,,
2005-04-11 00:00:00,,,,23.645,24.31,23.425,,,,,,
2005-04-12 00:00:00,,,,24.28,24.39,23.585,,,,1,15,12
2005-04-13 00:00:00,,,,23.675,23.7,22.8,,,,,,
2005-04-14 00:00:00,,,,23.15,23.675,22.745,,,,1,15,12
2005-04-15 00:00:00,,,,23.05,23.075,21.745,,,,1,14,12
2005-04-18 00:00:00,,,,21.85,22.41,21.425,,,,,,
2005-04-19 00:00:00,,,,22.65,23.425,22.62,,,,,,
2005-04-20 00:00:00,,,,23.31,23.62,22.725,,,,,,
2005-04-21 00:00:00,,,,22.875,23.56,22.795,,,,,,
2005-04-22 00:00:00,,,,23.58,23.955,23.315,,,,1,13,12
2005-04-25 00:00:00,,,,24.2,24.3,23.975,,,,,,
2005-04-26 00:00:00,,,,24.155,24.2,23.775,,,,1,13,12
2005-04-27 00:00:00,,,,23.95,24.11,23.025,,,,1,15,11
2005-04-28 00:00:00,,,,23.69,23.975,23.4,,,,1,16,11
2005-04-29 00:00:00,,,,24.05,24.2,23.485,,,,,,
2005-05-02 00:00:00,,,,23.475,24.72,23.3,,,,,,
2005-05-03 00:00:00,,,,24.425,24.55,24.1,,,,1,16,11
2005-05-04 00:00:00,,,,24.385,24.5,23.725,,,,,,
2005-05-05 00:00:00,,,,24.7,25.05,24.535,,,,1,15,11
2005-05-06 00:00:00,,,,25.12,25.2,24.7,,,,,,
2005-05-09 00:00:00,,,,25.01,25.075,24.785,,,,,,
2005-05-10 00:00:00,,,,24.895,25.06,24.415,,,,,,
2005-05-11 00:00:00,,,,24.25,24.65,24.15,,,,,,
2005-05-12 00:00:00,,,,24.3,24.33,22.5,,,,,,
2005-05-13 00:00:00,,,,22.925,22.925,21.75,,,,,,
2005-05-16 00:00:00,,,,22.365,22.445,21.755,,,,,,
2005-05-17 00:00:00,,,,22.275,23.07,22.275,,,,,,
2005-05-18 00:00:00,,,,23.19,23.605,22.905,,,,,,
2005-05-19 00:00:00,,,,23.3,23.625,23.23,,,,,,
2005-05-20 00:00:00,,,,23.775,24,23.535,,,,,,
2005-05-23 00:00:00,,,,24.475,24.735,24.225,,,,,,
2005-05-24 00:00:00,,,,24.63,24.925,24.43,,,,,,
2005-05-25 00:00:00,,,,24.895,25.25,24.655,,,,,,
2005-05-26 00:00:00,,,,25,25.305,24.885,,,,,,
2005-05-27 00:00:00,,,,25.36,25.5,25.115,,,,1,15,10
2005-05-31 00:00:00,,,,24.85,25.09,24.71,,,,,,
2005-06-01 00:00:00,,,,25.275,25.975,25.2,,,,1,14,11
2005-06-02 00:00:00,,,,25.9,26,25.515,,,,,,
2005-06-03 00:00:00,,,,25.925,26.135,25.575,,,,1,15,11
2005-06-06 00:00:00,,,,26.095,26.23,25.805,,,,2,15,10
2005-06-07 00:00:00,,,,26.125,26.24,25.37,,,,,,
2005-06-08 00:00:00,,,,25.46,26.565,25.44,,,,,,
2005-06-09 00:00:00,,,,26.35,27.075,26.265,,,,,,
2005-06-10 00:00:00,,,,27.125,27.215,26.835,,,,,,
2005-06-13 00:00:00,,,,26.975,27.4,26.805,,,,,,
2005-06-14 00:00:00,,,,27.37,27.735,27.215,,,,,,
2005-06-15 00:00:00,,,,28,28.12,27.71,,,,,,
2005-06-16 00:00:00,,,,28.025,28.175,27.84,,,,,,
2005-06-17 00:00:00,,,,28.15,28.225,27.59,,,,,,
2005-06-20 00:00:00,,,,28.575,28.865,28.335,,,,2,15,10
2005-06-21 00:00:00,,,,28.5,28.72,28.15,,,,,,
2005-06-22 00:00:00,,,,28.5,28.8,28.285,,,,,,
2005-06-23 00:00:00,,,,28.5,28.96,28.25,,,,,,
2005-06-24 00:00:00,,,,28.45,28.675,27.8,,,,,,
2005-06-27 00:00:00,,,,28.005,28.65,28.005,,,,2,15,10
2005-06-28 00:00:00,,,,28.345,28.36,27.81,,,,,,
2005-06-29 00:00:00,,,,27.95,28.325,27.9,,,,2,15,10
2005-06-30 00:00:00,,,,27.975,28.97,27.955,,,,2,15,10
2005-07-01 00:00:00,,,,28.84,29.36,28.78,,,,,,
2005-07-05 00:00:00,,,,29.5,30.025,29.4,,,,,,
2005-07-06 00:00:00,,,,30.035,30.35,29.43,,,,,,
2005-07-07 00:00:00,,,,29.2,30.175,29.15,,,,2,15,10
2005-07-08 00:00:00,,,,30.3,30.695,29.705,,,,,,
2005-07-11 00:00:00,,,,29.9,30.345,29.745,,,,2,14,11
2005-07-12 00:00:00,,,,30.375,30.875,30.34,,,,,,
2005-07-13 00:00:00,,,,30.875,30.875,30.1,,,,2,14,11
2005-07-14 00:00:00,,,,30.55,30.7,29.39,,,,2,14,11
2005-07-15 00:00:00,,,,29.61,29.95,29.07,,,,2,13,12
2005-07-18 00:00:00,,,,29.295,29.295,28.75,,,,2,13,12
2005-07-19 00:00:00,,,,29.44,30.075,29.16,,,,,,
2005-07-20 00:00:00,,,,30.25,30.475,29.62,,,,2,13,12
2005-07-21 00:00:00,,,,30.325,30.555,29.72,,,,,,
2005-07-22 00:00:00,,,,30.375,31.765,30.375,,,,,,
2005-07-25 00:00:00,,,,31.625,32.475,31.355,,,,,,
2005-07-26 00:00:00,,,,32.485,32.69,32.005,,,,2,13,12
2005-07-27 00:00:00,,,,32.65,32.94,31.835,,,,2,12,14
2005-07-28 00:00:00,,,,30.75,30.85,29.8,,,,2,10,16
2005-07-29 00:00:00,,,,30.525,30.7,30.36,,,,,,
2005-08-01 00:00:00,,,,30.875,31.19,30.575,,,,,,
2005-08-02 00:00:00,,,,30.825,31.33,30.61,,,,,,
2005-08-03 00:00:00,,,,31.36,31.48,30.79,,,,,,
2005-08-04 00:00:00,,,,31.075,31.675,30.915,,,,,,
2005-08-05 00:00:00,,,,31.43,31.48,30.605,,,,,,
2005-08-08 00:00:00,,,,31.23,31.655,30.96,,,,,,
2005-08-09 00:00:00,,,,31.12,31.3,30.68,,,,,,
2005-08-10 00:00:00,,,,31.35,31.86,31.125,,,,,,
2005-08-11 00:00:00,,,,31.575,32.06,31.565,,,,2,10,16
2005-08-12 00:00:00,,,,32.2,32.2,31.735,,,,,,
2005-08-15 00:00:00,,,,31.6,31.91,31.33,,,,2,10,16
2005-08-16 00:00:00,,,,31.25,31.59,30.55,,,,2,10,16
2005-08-17 00:00:00,,,,30.595,31.2,29.59,,,,1,10,16
2005-08-18 00:00:00,,,,29.74,30.31,29.375,,,,,,
2005-08-19 00:00:00,,,,30.45,30.675,30.42,,,,1,10,16
2005-08-22 00:00:00,,,,30.75,30.99,30.4,,,,,,
2005-08-23 00:00:00,,,,30.93,31.025,29.94,,,,,,
2005-08-24 00:00:00,,,,30.695,31.19,30.35,,,,,,
2005-08-25 00:00:00,,,,30.51,30.99,30.51,,,,,,
2005-08-26 00:00:00,,,,30.77,31,30.125,,,,,,
2005-08-29 00:00:00,,,,31.375,31.5,30.385,,,,,,
2005-08-30 00:00:00,,,,31.125,31.7,31.125,,,,,,
2005-08-31 00:00:00,,,,32.05,32.605,31.535,,,,1,10,16
2005-09-01 00:00:00,,,,32.55,33.29,32.165,,,,1,10,16
2005-09-02 00:00:00,,,,33.045,33.155,32.425,,,,1,10,16
2005-09-06 00:00:00,,,,33.145,33.145,32.49,,,,1,10,16
2005-09-07 00:00:00,,,,33.25,33.65,32.84,,,,1,11,16
2005-09-08 00:00:00,,,,33.35,34.05,33.225,,,,1,11,16
2005-09-09 00:00:00,,,,34.085,35.39,33.955,,,,1,11,16
2005-09-12 00:00:00,,,,35,35.27,34.52,,,,,,
2005-09-13 00:00:00,,,,34.99,35.475,34.16,,,,1,11,16
2005-09-14 00:00:00,,,,34.5,34.98,34.175,,,,0,11,17
2005-09-15 00:00:00,,,,34.85,35.065,34.35,,,,0,11,17
2005-09-16 00:00:00,,,,35.12,35.525,34.75,,,,0,11,17
2005-09-19 00:00:00,,,,36.55,37.25,36.27,,,,,,
2005-09-20 00:00:00,,,,36.305,36.425,35.5,,,,0,12,16
2005-09-21 00:00:00,,,,36.475,37.115,36.18,,,,0,12,16
2005-09-22 00:00:00,,,,37.27,37.9,35.67,,,,,,
2005-09-23 00:00:00,,,,36.545,36.85,36.025,,,,0,12,16
2005-09-26 00:00:00,,,,35.755,37.4,35.755,,,,,,
2005-09-27 00:00:00,,,,37.22,37.475,36.7,,,,,,
2005-09-28 00:00:00,,,,37.555,38.045,36.75,,,,0,12,15
2005-09-29 00:00:00,,,,38.15,38.41,37.725,,,,,,
2005-09-30 00:00:00,,,,37.875,37.95,37.345,,,,,,
2005-10-03 00:00:00,,,,38.025,39.185,38,,,,0,12,15
2005-10-04 00:00:00,,,,38.7,38.7,37.38,,,,0,12,15
2005-10-05 00:00:00,,,,37.8,37.86,35.625,,,,0,11,15
2005-10-06 00:00:00,,,,34.625,34.7,33,,,,,,
2005-10-07 00:00:00,,,,34.25,34.59,33.725,,,,0,11,16
2005-10-10 00:00:00,,,,35.125,35.15,33.42,,,,0,11,16
2005-10-11 00:00:00,,,,34.675,35.4,34.43,,,,0,11,16
2005-10-12 00:00:00,,,,35.18,35.3,33.87,,,,0,11,16
2005-10-13 00:00:00,,,,33.75,33.75,31.805,,,,0,11,16
2005-10-14 00:00:00,,,,32.95,33.675,32.01,,,,,,
2005-10-17 00:00:00,,,,34.25,34.75,34.05,,,,0,11,15
2005-10-18 00:00:00,,,,34.05,34.33,32.16,,,,1,11,15
2005-10-19 00:00:00,,,,32.22,33.21,31.095,,,,,,
2005-10-20 00:00:00,,,,32.75,32.905,30,,,,,,
2005-10-21 00:00:00,,,,30.41,31.535,30.2,,,,1,11,14
2005-10-24 00:00:00,,,,30.225,32.27,30.2,,,,,,
2005-10-25 00:00:00,,,,32.105,33.755,32.105,,,,1,11,14
2005-10-26 00:00:00,,,,33.5,34.78,32.83,,,,1,10,14
2005-10-27 00:00:00,,,,33.625,33.67,31.9,,,,1,10,14
2005-10-28 00:00:00,,,,31.975,33.365,31.155,,,,,,
2005-10-31 00:00:00,,,,33.78,34.46,33.175,,,,1,10,14
2005-11-01 00:00:00,,,,33.5,34.2,33.25,,,,,,
2005-11-02 00:00:00,,,,34.25,35.5,34.17,,,,1,10,14
2005-11-03 00:00:00,,,,35.375,36.275,35.11,,,,1,10,14
2005-11-04 00:00:00,,,,35.795,35.815,34.08,,,,1,10,14
2005-11-07 00:00:00,,,,33.375,33.85,32.83,,,,,,
2005-11-08 00:00:00,,,,33.08,33.785,32.55,,,,,,
2005-11-09 00:00:00,,,,33.25,34.06,32.275,,,,,,
2005-11-10 00:00:00,,,,32.525,32.525,31.11,,,,1,10,15
2005-11-11 00:00:00,,,,31.525,32.38,31.455,,,,,,
2005-11-14 00:00:00,,,,32.5,32.97,31.575,,,,1,11,14
2005-11-15 00:00:00,,,,31.59,33.925,31.59,,,,,,
2005-11-16 00:00:00,,,,33.25,34.94,33.23,,,,,,
2005-11-17 00:00:00,,,,35.245,35.42,34.35,,,,,,
2005-11-18 00:00:00,,,,35.03,35.03,33.975,,,,1,11,14
2005-11-21 00:00:00,,,,34.8,36.13,34.765,,,,,,
2005-11-22 00:00:00,,,,36.5,36.85,36.125,,,,,,
2005-11-23 00:00:00,,,,35.75,36.37,35.405,,,,1,11,14
2005-11-25 00:00:00,,,,35.855,36.465,35.795,,,,,,
2005-11-28 00:00:00,,,,35.63,35.65,34.2,,,,,,
2005-11-29 00:00:00,,,,35.075,35.72,34.8,,,,1,11,14
2005-11-30 00:00:00,,,,35.875,36.295,35.51,,,,1,11,14
2005-12-01 00:00:00,,,,36.245,37.4,36.15,,,,1,11,14
2005-12-02 00:00:00,,,,37.425,37.695,36.725,,,,,,
2005-12-05 00:00:00,,,,38.55,38.825,37.63,,,,2,11,14
2005-12-06 00:00:00,,,,37.45,37.995,37.175,,,,,,
2005-12-07 00:00:00,,,,38.49,39.15,37.69,,,,2,10,14
2005-12-08 00:00:00,,,,38.28,39.35,38.16,,,,2,10,13
2005-12-09 00:00:00,,,,38.905,39.05,38,,,,,,
2005-12-12 00:00:00,,,,39.75,39.985,39,,,,2,10,13
2005-12-13 00:00:00,,,,40,40.98,39.55,,,,,,
2005-12-14 00:00:00,,,,39.65,40.425,39.4,,,,,,
2005-12-15 00:00:00,,,,40.42,40.875,39.81,,,,,,
2005-12-16 00:00:00,,,,40.435,40.435,38.72,,,,2,10,13
2005-12-19 00:00:00,,,,39.07,39.285,38.155,,,,,,
2005-12-20 00:00:00,,,,38.625,38.945,38.28,,,,,,
2005-12-21 00:00:00,,,,39.015,39.15,38.12,,,,,,
2005-12-22 00:00:00,,,,38.66,38.855,37.935,,,,,,
2005-12-23 00:00:00,,,,37.325,38,36.825,,,,2,10,13
2005-12-27 00:00:00,,,,37.585,37.6,35.91,,,,,,
2005-12-28 00:00:00,,,,36.64,37.42,36.45,,,,,,
2005-12-29 00:00:00,,,,37.09,37.685,36.585,,,,,,
2005-12-30 00:00:00,,,,36,37.05,36,,,,,,
2006-01-03 00:00:00,,,,37.65,39.525,37.525,,,,,,
2006-01-04 00:00:00,,,,38.875,39.59,38.775,,,,2,10,13
2006-01-05 00:00:00,,,,39.325,39.325,37.895,,,,2,10,13
2006-01-06 00:00:00,,,,38.9,39.465,38.69,,,,,,
2006-01-09 00:00:00,,,,39.05,39.195,38.07,,,,,,
2006-01-10 00:00:00,,,,39.12,39.95,38.925,,,,,,
2006-01-11 00:00:00,,,,38.955,39.39,38.39,,,,,,
2006-01-12 00:00:00,,,,39.375,40.62,39.06,,,,,,
2006-01-13 00:00:00,,,,39,40.125,38.99,,,,2,10,13
2006-01-17 00:00:00,,,,40.675,41.27,40.625,,,,2,10,13
2006-01-18 00:00:00,,,,40.875,41,39.33,,,,,,
2006-01-19 00:00:00,,,,39.98,42.04,39.9,,,,2,10,13
2006-01-20 00:00:00,,,,42.55,43.15,41.845,,,,2,10,13
2006-01-23 00:00:00,,,,41.965,42.4,41.425,,,,,,
2006-01-24 00:00:00,,,,41.81,42.48,41.525,,,,2,10,13
2006-01-25 00:00:00,,,,41.625,41.95,39.9,,,,,,
2006-01-26 00:00:00,,,,40.15,40.25,38.795,,,,2,10,13
2006-01-27 00:00:00,,,,40.405,41.095,39.91,,,,,,
2006-01-30 00:00:00,,,,40.5,42.09,40.5,,,,,,
2006-01-31 00:00:00,,,,41.125,42.44,41.125,,,,,,
2006-02-01 00:00:00,,,,42.575,43.455,41.335,,,,2,10,14
2006-02-02 00:00:00,,,,41.125,41.125,39.375,,,,2,10,14
2006-02-03 00:00:00,,,,39.875,40.085,39.275,,,,2,10,15
2006-02-06 00:00:00,,,,39.925,40.68,39.925,,,,2,10,15
2006-02-07 00:00:00,,,,39.125,39.125,36.98,,,,,,
2006-02-08 00:00:00,,,,37,37.015,35.75,,,,,,
2006-02-09 00:00:00,,,,37.1,37.625,34.75,,,,,,
2006-02-10 00:00:00,,,,35.325,35.475,34.12,,,,,,
2006-02-13 00:00:00,,,,34.345,34.74,33.865,,,,,,
2006-02-14 00:00:00,,,,33,34.555,33,,,,,,
2006-02-15 00:00:00,,,,34.925,35.425,34.2,,,,,,
2006-02-16 00:00:00,,,,34.82,36.125,34.81,,,,2,10,15
2006-02-17 00:00:00,,,,36.5,36.71,35.725,,,,,,
2006-02-21 00:00:00,,,,36.77,37.175,36,,,,,,
2006-02-22 00:00:00,,,,36.125,36.16,35.045,,,,2,10,15
2006-02-23 00:00:00,,,,34.92,35.89,34.225,,,,,,
2006-02-24 00:00:00,,,,35.58,35.745,35.005,,,,,,
2006-02-27 00:00:00,,,,34.825,34.975,34.075,,,,,,
2006-02-28 00:00:00,,,,33.745,33.815,32.835,,,,2,10,15
2006-03-01 00:00:00,,,,33.78,34.36,33.68,,,,,,
2006-03-02 00:00:00,,,,34.175,35.275,33.9,,,,,,
2006-03-03 00:00:00,,,,34.625,35.525,34.625,,,,1,10,16
2006-03-06 00:00:00,,,,34.75,34.925,32.96,,,,1,10,16
2006-03-07 00:00:00,,,,33.31,33.395,32.06,,,,1,10,16
2006-03-08 00:00:00,,,,32.55,33.715,32.325,,,,1,10,16
2006-03-09 00:00:00,,,,33.875,34.1,32.48,,,,1,10,16
2006-03-10 00:00:00,,,,32.585,33.395,32.1,,,,1,10,16
2006-03-13 00:00:00,,,,32.9,33.965,32.9,,,,,,
2006-03-14 00:00:00,,,,33.845,34.825,33.165,,,,1,10,16
2006-03-15 00:00:00,,,,34.175,35.24,34.055,,,,1,10,16
2006-03-16 00:00:00,,,,35.07,36.565,35.015,,,,1,10,16
2006-03-17 00:00:00,,,,36.695,36.71,36.085,,,,1,10,16
2006-03-20 00:00:00,,,,35.5,36.19,34.185,,,,1,10,16
2006-03-21 00:00:00,,,,33.875,35.045,33.75,,,,1,10,16
2006-03-22 00:00:00,,,,34.25,35.425,34.145,,,,,,
2006-03-23 00:00:00,,,,34.965,35.825,34.895,,,,1,10,16
2006-03-24 00:00:00,,,,35.395,36.25,35.32,,,,,,
2006-03-27 00:00:00,,,,35.575,36.23,35.2,,,,1,9,16
2006-03-28 00:00:00,,,,36.25,36.685,36.045,,,,,,
2006-03-29 00:00:00,,,,36.25,37.2,36.25,,,,1,9,16
2006-03-30 00:00:00,,,,36.925,37.57,36.875,,,,,,
2006-03-31 00:00:00,,,,36.25,36.6,35.715,,,,,,
2006-04-03 00:00:00,,,,36.7,36.97,35.825,,,,1,9,16
2006-04-04 00:00:00,,,,35.475,36.585,35.375,,,,,,
2006-04-05 00:00:00,,,,36.58,37.2,36.325,,,,1,9,16
2006-04-06 00:00:00,,,,37.65,37.65,36.525,,,,,,
2006-04-07 00:00:00,,,,36.79,37.055,35.785,,,,,,
2006-04-10 00:00:00,,,,36.54,37.25,36.54,,,,1,9,16
2006-04-11 00:00:00,,,,37.12,37.35,36.155,,,,1,9,16
2006-04-12 00:00:00,,,,36.585,36.84,35.98,,,,,,
2006-04-13 00:00:00,,,,35.225,36.095,34.66,,,,1,9,16
2006-04-17 00:00:00,,,,36.235,36.88,36.06,,,,1,9,16
2006-04-18 00:00:00,,,,37.185,38.65,37.175,,,,1,9,16
2006-04-19 00:00:00,,,,38.25,39.61,38.25,,,,1,9,16
2006-04-20 00:00:00,,,,38.925,39.1,37.64,,,,,,
2006-04-21 00:00:00,,,,38.51,38.895,37.875,,,,,,
2006-04-24 00:00:00,,,,38.275,38.275,37.275,,,,,,
2006-04-25 00:00:00,,,,37.735,38.105,36.405,,,,,,
2006-04-26 00:00:00,,,,36.73,37.585,35.66,,,,,,
2006-04-27 00:00:00,,,,35.5,36.34,35.115,,,,,,
2006-04-28 00:00:00,,,,35.66,36.025,34.93,,,,1,9,15
2006-05-01 00:00:00,,,,35.615,36.405,35.37,,,,,,
2006-05-02 00:00:00,,,,36.61,36.8,36.185,,,,1,9,15
2006-05-03 00:00:00,,,,36.46,36.52,35.62,,,,,,
2006-05-04 00:00:00,,,,35.5,36.26,35.065,,,,,,
2006-05-05 00:00:00,,,,37.41,38.275,37.24,,,,1,8,16
2006-05-08 00:00:00,,,,37.05,37.38,36.57,,,,1,8,15
2006-05-09 00:00:00,,,,37.275,37.59,37.08,,,,1,8,14
2006-05-10 00:00:00,,,,37.05,37.895,36.965,,,,1,8,14
2006-05-11 00:00:00,,,,38.25,38.61,36.58,,,,1,8,14
2006-05-12 00:00:00,,,,36.225,36.4,34.34,,,,,,
2006-05-15 00:00:00,,,,33.375,33.98,32.375,,,,1,8,14
2006-05-16 00:00:00,,,,33.48,33.635,32.85,,,,1,8,14
2006-05-17 00:00:00,,,,32.92,33.32,31.55,,,,1,9,14
2006-05-18 00:00:00,,,,31.925,32.4,30.9,,,,1,9,14
2006-05-19 00:00:00,,,,31.05,31.87,30.725,,,,1,9,14
2006-05-22 00:00:00,,,,30.85,31.615,30.045,,,,,,
2006-05-23 00:00:00,,,,32.375,32.74,30.94,,,,1,9,14
2006-05-24 00:00:00,,,,30.5,31.425,29.8,,,,,,
2006-05-25 00:00:00,,,,31.025,31.66,30.695,,,,,,
2006-05-26 00:00:00,,,,31.65,32.16,31.305,,,,1,10,13
2006-05-30 00:00:00,,,,32.375,32.6,31.4,,,,1,10,13
2006-05-31 00:00:00,,,,31.65,32.845,31.18,,,,1,10,13
2006-06-01 00:00:00,,,,32.065,33.39,31.895,,,,1,10,13
2006-06-02 00:00:00,,,,33.44,33.44,32.37,,,,,,
2006-06-05 00:00:00,,,,33.22,33.35,31.33,,,,,,
2006-06-06 00:00:00,,,,31.5,32.485,31.45,,,,1,10,13
2006-06-07 00:00:00,,,,31.625,32.02,30.535,,,,1,11,13
2006-06-08 00:00:00,,,,29.58,30.525,28.65,,,,1,11,13
2006-06-09 00:00:00,,,,30.535,30.935,29.62,,,,1,12,13
2006-06-12 00:00:00,,,,29.99,30.29,28.74,,,,1,12,13
2006-06-13 00:00:00,,,,28.56,29.54,28.16,,,,,,
2006-06-14 00:00:00,,,,28.975,30.315,28.92,,,,1,12,13
2006-06-15 00:00:00,,,,30.5,31.55,30.375,,,,1,12,13
2006-06-16 00:00:00,,,,31.06,31.88,30.475,,,,1,12,13
2006-06-19 00:00:00,,,,31.39,31.4,29.225,,,,,,
2006-06-20 00:00:00,,,,29.635,30.3,29.395,,,,1,13,13
2006-06-21 00:00:00,,,,29.595,30.925,29.595,,,,1,13,13
2006-06-22 00:00:00,,,,30.025,30.71,30,,,,1,13,13
2006-06-23 00:00:00,,,,32.2,32.86,32.095,,,,1,13,13
2006-06-26 00:00:00,,,,32.45,32.9,31.85,,,,1,13,14
2006-06-27 00:00:00,,,,33.03,33.425,32.905,,,,,,
2006-06-28 00:00:00,,,,33.275,33.4,32.82,,,,1,13,14
2006-06-29 00:00:00,,,,33.8,34.65,33.535,,,,1,13,14
2006-06-30 00:00:00,,,,34.345,34.99,34.13,,,,1,13,14
2006-07-03 00:00:00,,,,35.105,35.59,34.93,,,,,,
2006-07-05 00:00:00,,,,35.345,35.91,34.775,,,,,,
2006-07-06 00:00:00,,,,35.85,36.205,35.45,,,,,,
2006-07-07 00:00:00,,,,35.95,36.19,34.3,,,,,,
2006-07-10 00:00:00,,,,34.125,35.115,34.125,,,,1,13,14
2006-07-11 00:00:00,,,,35.025,35.425,34.77,,,,1,13,14
2006-07-12 00:00:00,,,,35.175,35.46,34.685,,,,1,13,15
2006-07-13 00:00:00,,,,35.14,35.57,34.55,,,,1,13,15
2006-07-14 00:00:00,,,,34.93,35.13,33.805,,,,1,13,15
2006-07-17 00:00:00,,,,34.625,34.815,33.41,,,,1,13,14
2006-07-18 00:00:00,,,,34.25,34.27,32.775,,,,,,
2006-07-19 00:00:00,,,,33.44,34.215,33.275,,,,1,13,14
2006-07-20 00:00:00,,,,34.055,34.385,33.25,,,,,,
2006-07-21 00:00:00,,,,33.425,33.44,32.155,,,,1,13,14
2006-07-24 00:00:00,,,,32.575,33.815,32.5,,,,1,13,14
2006-07-25 00:00:00,,,,34.26,35.24,34.005,,,,1,13,14
2006-07-26 00:00:00,,,,34.625,36.09,34.32,,,,1,13,14
2006-07-27 00:00:00,,,,36.21,36.28,35.145,,,,2,13,14
2006-07-28 00:00:00,,,,35,36.03,34.81,,,,2,13,14
2006-07-31 00:00:00,,,,36.45,37.77,36.415,,,,2,13,14
2006-08-01 00:00:00,,,,36.085,36.82,35.57,,,,2,13,14
2006-08-02 00:00:00,,,,36.05,36.665,35.14,,,,2,13,15
2006-08-03 00:00:00,,,,34.425,35.21,34.425,,,,2,13,15
2006-08-04 00:00:00,,,,34.8,35.1,34.185,,,,,,
2006-08-07 00:00:00,,,,34.895,35.435,34.485,,,,2,13,15
2006-08-08 00:00:00,,,,34.755,35.305,34.535,,,,2,13,15
2006-08-09 00:00:00,,,,35,35.855,34.8,,,,,,
2006-08-10 00:00:00,,,,35.03,35.125,34.365,,,,2,13,15
2006-08-11 00:00:00,,,,34.825,34.855,33.95,,,,2,13,15
2006-08-14 00:00:00,,,,33.82,33.835,32.925,,,,,,
2006-08-15 00:00:00,,,,33.48,33.48,32.885,,,,2,13,15
2006-08-16 00:00:00,,,,33.225,33.615,32.47,,,,2,13,15
2006-08-17 00:00:00,,,,32.24,32.795,32.135,,,,2,13,15
2006-08-18 00:00:00,,,,32.75,33.3,32.575,,,,2,13,15
2006-08-21 00:00:00,,,,33.295,33.715,33.225,,,,,,
2006-08-22 00:00:00,,,,33.25,33.705,33.125,,,,2,13,15
2006-08-23 00:00:00,,,,33.775,33.87,32.81,,,,2,12,15
2006-08-24 00:00:00,,,,33,33.765,32.785,,,,,,
2006-08-25 00:00:00,,,,34.625,34.885,34.18,,,,2,13,14
2006-08-28 00:00:00,,,,33.75,34.42,33.71,,,,2,13,14
2006-08-29 00:00:00,,,,33.645,33.65,32.76,,,,2,13,14
2006-08-30 00:00:00,,,,32.815,33.13,32.065,,,,2,12,15
2006-08-31 00:00:00,,,,32.325,32.945,32.19,,,,2,12,15
2006-09-01 00:00:00,,,,32.425,33.06,32.425,,,,2,12,15
2006-09-05 00:00:00,,,,32.66,33.41,32.66,,,,2,12,15
2006-09-06 00:00:00,,,,32.64,32.775,31.535,,,,2,12,15
2006-09-07 00:00:00,,,,31.335,31.85,31.095,,,,2,12,15
2006-09-08 00:00:00,,,,31.5,31.65,30.35,,,,,,
2006-09-11 00:00:00,,,,29.76,30.37,29.23,,,,2,13,14
2006-09-12 00:00:00,,,,29.94,30.355,29.52,,,,2,13,14
2006-09-13 00:00:00,,,,30.4,30.815,30.3,,,,,,
2006-09-14 00:00:00,,,,30.48,30.775,29.245,,,,,,
2006-09-15 00:00:00,,,,29.575,30,29.305,,,,2,13,14
2006-09-18 00:00:00,,,,30.4,31.93,30.39,,,,,,
2006-09-19 00:00:00,,,,31.37,31.605,30.47,,,,2,14,14
2006-09-20 00:00:00,,,,30.615,31.085,30.15,,,,,,
2006-09-21 00:00:00,,,,30.6,31.95,30.585,,,,2,14,14
2006-09-22 00:00:00,,,,31.35,31.445,30.74,,,,,,
2006-09-25 00:00:00,,,,30.775,31.705,30.35,,,,2,14,14
2006-09-26 00:00:00,,,,31.5,32.255,31.295,,,,2,14,14
2006-09-27 00:00:00,,,,32.28,32.705,31.7,,,,2,14,14
2006-09-28 00:00:00,,,,32.525,32.88,31.945,,,,2,14,14
2006-09-29 00:00:00,,,,32.45,32.85,31.99,,,,2,14,14
2006-10-02 00:00:00,,,,32.65,32.92,32.175,,,,,,
2006-10-03 00:00:00,,,,31.5,31.545,30.915,,,,2,14,14
2006-10-04 00:00:00,,,,31.05,31.565,29.94,,,,2,14,14
2006-10-05 00:00:00,,,,32.05,32.23,31.17,,,,2,14,14
2006-10-06 00:00:00,,,,31.55,31.835,30.95,,,,2,14,14
2006-10-09 00:00:00,,,,31.9,32.33,31.285,,,,2,14,14
2006-10-10 00:00:00,,,,31.295,32.32,31.24,,,,2,14,14
2006-10-11 00:00:00,,,,31.625,31.825,31.115,,,,2,14,14
2006-10-12 00:00:00,,,,31.3,32,31.19,,,,2,14,14
2006-10-13 00:00:00,,,,31.995,32.83,31.965,,,,2,14,14
2006-10-16 00:00:00,,,,32.475,33.77,32.47,,,,2,15,14
2006-10-17 00:00:00,,,,33.49,33.525,32.675,,,,2,15,14
2006-10-18 00:00:00,,,,33.005,33.445,32.66,,,,,,
2006-10-19 00:00:00,,,,33.215,33.7,32.775,,,,2,15,14
2006-10-20 00:00:00,,,,33.69,33.69,32.66,,,,2,15,14
2006-10-23 00:00:00,,,,32.86,33.23,32.51,,,,2,15,14
2006-10-24 00:00:00,,,,32.955,34.54,32.895,,,,2,15,14
2006-10-25 00:00:00,,,,34.025,35.4,34.02,,,,2,15,14
2006-10-26 00:00:00,,,,35.5,35.535,34.245,,,,,,
2006-10-27 00:00:00,,,,34.545,35.035,33.935,,,,2,15,14
2006-10-30 00:00:00,,,,33.61,34.045,33.25,,,,2,15,14
2006-10-31 00:00:00,,,,33.45,33.655,32.525,,,,2,16,13
2006-11-01 00:00:00,,,,33.125,33.365,32.54,,,,2,17,13
2006-11-02 00:00:00,,,,32.65,33.185,32.29,,,,2,17,13
2006-11-03 00:00:00,,,,33.35,34.065,33.285,,,,2,16,14
2006-11-06 00:00:00,,,,33.235,33.85,32.98,,,,,,
2006-11-07 00:00:00,,,,33.63,33.64,32.975,,,,2,16,14
2006-11-08 00:00:00,,,,33,33.98,32.96,,,,2,16,14
2006-11-09 00:00:00,,,,34.23,34.99,33.905,,,,2,16,14
2006-11-10 00:00:00,,,,34.2,34.245,33.38,,,,2,16,14
2006-11-13 00:00:00,,,,33.47,33.98,33.24,,,,,,
2006-11-14 00:00:00,,,,33.815,33.915,33.495,,,,,,
2006-11-15 00:00:00,,,,33.63,34.52,33.63,,,,3,16,13
2006-11-16 00:00:00,,,,34.425,34.7,32.865,,,,3,16,13
2006-11-17 00:00:00,,,,32.855,34.25,32.83,,,,3,17,12
2006-11-20 00:00:00,,,,33.915,34.24,33.52,,,,3,17,12
2006-11-21 00:00:00,,,,34.19,34.865,33.995,,,,3,17,12
2006-11-22 00:00:00,,,,34.775,34.905,34.15,,,,3,17,12
2006-11-24 00:00:00,,,,34.85,35.34,34.735,,,,,,
2006-11-27 00:00:00,,,,34.96,35.065,34.46,,,,3,17,12
2006-11-28 00:00:00,,,,34.59,35.705,34.59,,,,3,17,12
2006-11-29 00:00:00,,,,35.7,36.135,34.785,,,,3,17,12
2006-11-30 00:00:00,,,,35.58,35.7,34.835,,,,3,16,13
2006-12-01 00:00:00,,,,34.955,35.355,34.435,,,,3,16,13
2006-12-04 00:00:00,,,,34.875,35.055,34.24,,,,3,16,11
2006-12-05 00:00:00,,,,34.78,34.95,34.315,,,,3,16,11
2006-12-06 00:00:00,,,,34.45,35.265,34.45,,,,3,16,11
2006-12-07 00:00:00,,,,34.675,34.835,34.275,,,,,,
2006-12-08 00:00:00,,,,34.725,34.825,34.2,,,,3,16,11
2006-12-11 00:00:00,,,,34.255,34.55,33.79,,,,3,16,11
2006-12-12 00:00:00,,,,34.21,34.585,33.86,,,,,,
2006-12-13 00:00:00,,,,34.46,34.655,34.02,,,,3,16,11
2006-12-14 00:00:00,,,,34.535,35.08,34.3,,,,3,16,11
2006-12-15 00:00:00,,,,34.95,34.98,33.97,,,,3,16,11
2006-12-18 00:00:00,,,,33.95,33.95,32.56,,,,3,16,11
2006-12-19 00:00:00,,,,32.41,33.555,32.29,,,,3,16,11
2006-12-20 00:00:00,,,,33.17,33.185,32.445,,,,3,16,11
2006-12-21 00:00:00,,,,32.7,32.83,32.14,,,,,,
2006-12-22 00:00:00,,,,32.5,32.54,32.11,,,,,,
2006-12-26 00:00:00,,,,32.155,32.425,31.475,,,,,,
2006-12-27 00:00:00,,,,31.58,31.95,31.165,,,,,,
2006-12-28 00:00:00,,,,32,32.19,31.655,,,,3,16,11
2006-12-29 00:00:00,,,,31.625,31.8,30.935,,,,,,
2007-01-01 00:00:00,,,,,,,,,,3,15,12
2007-01-03 00:00:00,,,,30.755,30.8,29.605,,,,3,15,12
2007-01-04 00:00:00,,,,30.125,30.915,29.885,,,,3,15,12
2007-01-05 00:00:00,,,,30.65,31.5,30.45,,,,2,14,13
2007-01-08 00:00:00,,,,31.85,32,30.645,,,,2,14,13
2007-01-09 00:00:00,,,,30.5,30.945,30.075,,,,2,14,13
2007-01-10 00:00:00,,,,30.645,30.805,30.01,,,,2,14,13
2007-01-11 00:00:00,,,,30.415,31.04,29.855,,,,2,14,12
2007-01-12 00:00:00,,,,30.365,31.22,30.17,,,,2,14,12
2007-01-16 00:00:00,,,,31.06,31.545,30.755,,,,2,14,12
2007-01-17 00:00:00,,,,31.02,31.41,30.87,,,,2,14,12
2007-01-18 00:00:00,,,,31.255,31.35,30.6,,,,2,14,12
2007-01-19 00:00:00,,,,31.2,32.435,31.065,,,,2,14,12
2007-01-22 00:00:00,,,,32.925,33.005,32.185,,,,2,14,12
2007-01-23 00:00:00,,,,32.825,34.055,32.765,,,,2,14,12
2007-01-24 00:00:00,,,,33.415,33.705,32.845,,,,2,14,12
2007-01-25 00:00:00,,,,33.545,33.545,32.39,,,,2,14,13
2007-01-26 00:00:00,,,,32.8,33.135,32.545,,,,2,14,13
2007-01-29 00:00:00,,,,33.04,33.74,32.475,,,,2,14,13
2007-01-30 00:00:00,,,,32.625,34.235,32.585,,,,2,14,13
2007-01-31 00:00:00,,,,33.95,34.875,33.725,,,,2,15,13
2007-02-01 00:00:00,,,,34.75,34.975,34.06,,,,2,15,14
2007-02-02 00:00:00,,,,34.66,34.725,34.02,,,,2,15,13
2007-02-05 00:00:00,,,,34.43,34.87,33.93,,,,2,14,13
2007-02-06 00:00:00,,,,34.245,34.25,33.345,,,,2,14,13
2007-02-07 00:00:00,,,,33.575,33.855,32.98,,,,2,14,12
2007-02-08 00:00:00,,,,33.275,33.405,32.78,,,,2,14,13
2007-02-09 00:00:00,,,,33.42,33.81,33.14,,,,,,
2007-02-12 00:00:00,,,,32.835,33.08,32.2,,,,,,
2007-02-13 00:00:00,,,,32.995,33.085,32.54,,,,2,14,13
2007-02-14 00:00:00,,,,33.06,33.335,32.8,,,,,,
2007-02-15 00:00:00,,,,32.9,33.05,32.355,,,,,,
2007-02-16 00:00:00,,,,33.15,33.765,33.05,,,,2,14,13
2007-02-20 00:00:00,,,,33.2,33.31,33,,,,,,
2007-02-21 00:00:00,,,,33.205,33.81,32.91,,,,2,14,13
2007-02-22 00:00:00,,,,33.86,34.4,33.67,,,,,,
2007-02-23 00:00:00,,,,34.33,34.585,33.73,,,,2,14,13
2007-02-26 00:00:00,,,,34.2,34.875,34.135,,,,,,
2007-02-27 00:00:00,,,,34.47,34.91,33.375,,,,2,14,13
2007-02-28 00:00:00,,,,33.675,34.15,33.34,,,,,,
2007-03-01 00:00:00,,,,33.13,33.97,32.985,,,,,,
2007-03-02 00:00:00,,,,33.42,33.61,32.85,,,,,,
2007-03-05 00:00:00,,,,32,32.925,32,,,,2,14,13
2007-03-06 00:00:00,,,,32.8,33.1,32.61,,,,,,
2007-03-07 00:00:00,,,,32.945,34.15,32.92,,,,,,
2007-03-08 00:00:00,,,,33.775,33.985,33.31,,,,,,
2007-03-09 00:00:00,,,,33.695,33.875,33.27,,,,2,14,13
2007-03-12 00:00:00,,,,33.195,33.23,32.875,,,,,,
2007-03-13 00:00:00,,,,33,34.015,32.845,,,,2,14,13
2007-03-14 00:00:00,,,,33.2,33.705,32.8,,,,2,14,13
2007-03-15 00:00:00,,,,33.6,33.8,33.275,,,,,,
2007-03-16 00:00:00,,,,33.45,33.525,32.655,,,,2,14,13
2007-03-19 00:00:00,,,,33.22,33.46,33.005,,,,,,
2007-03-20 00:00:00,,,,33.65,34.015,33.375,,,,,,
2007-03-21 00:00:00,,,,34.1,35,34.025,,,,2,14,13
2007-03-22 00:00:00,,,,35.25,35.935,35.115,,,,,,
2007-03-23 00:00:00,,,,35.63,35.83,35.345,,,,2,14,13
2007-03-26 00:00:00,,,,35.995,36.3,35.405,,,,2,14,14
2007-03-27 00:00:00,,,,36.015,36.315,35.735,,,,2,14,14
2007-03-28 00:00:00,,,,36.5,36.545,35.55,,,,,,
2007-03-29 00:00:00,,,,36,36.2,35.675,,,,,,
2007-03-30 00:00:00,,,,35.71,35.945,35.5,,,,2,14,15
2007-04-02 00:00:00,,,,35.74,36.39,35.67,,,,2,14,15
2007-04-03 00:00:00,,,,35.875,36.535,35.775,,,,2,14,15
2007-04-04 00:00:00,,,,36.37,37.225,36.14,,,,2,14,15
2007-04-05 00:00:00,,,,36.93,37.425,36.85,,,,,,
2007-04-09 00:00:00,,,,37.35,37.93,37.055,,,,2,14,15
2007-04-10 00:00:00,,,,37.3,38.025,37.23,,,,2,14,15
2007-04-11 00:00:00,,,,37.89,38.1,37.445,,,,,,
2007-04-12 00:00:00,,,,38.09,38.585,37.67,,,,2,15,14
2007-04-13 00:00:00,,,,38.49,38.8,38.255,,,,2,15,14
2007-04-16 00:00:00,,,,38.415,38.725,37.795,,,,,,
2007-04-17 00:00:00,,,,38.75,38.85,37.79,,,,2,15,14
2007-04-18 00:00:00,,,,37.67,37.73,37.25,,,,,,
2007-04-19 00:00:00,,,,37,37.01,36.52,,,,2,15,14
2007-04-20 00:00:00,,,,36.775,37.11,36.52,,,,2,14,15
2007-04-23 00:00:00,,,,36.43,37.27,36.41,,,,2,14,15
2007-04-24 00:00:00,,,,37.18,37.36,36.965,,,,2,14,15
2007-04-25 00:00:00,,,,37.525,38.065,37.31,,,,2,14,15
2007-04-26 00:00:00,,,,37.2,37.495,36.88,,,,,,
2007-04-27 00:00:00,,,,37.075,37.485,36.9,,,,,,
2007-04-30 00:00:00,,,,37.065,37.61,36.72,,,,2,14,15
2007-05-01 00:00:00,,,,38.14,38.66,37.035,,,,1,15,16
2007-05-02 00:00:00,,,,37.96,38.8,37.85,,,,1,15,16
2007-05-03 00:00:00,,,,38.635,39.07,38.3,,,,1,15,16
2007-05-04 00:00:00,,,,39.065,39.33,38.33,,,,1,15,16
2007-05-07 00:00:00,,,,38.31,38.735,38.23,,,,,,
2007-05-08 00:00:00,,,,38.31,38.41,37.47,,,,,,
2007-05-09 00:00:00,,,,38.39,38.44,37.635,,,,,,
2007-05-10 00:00:00,,,,37.865,38.19,37.165,,,,,,
2007-05-11 00:00:00,,,,37.54,38,37.315,,,,1,15,16
2007-05-14 00:00:00,,,,38.07,38.825,38.055,,,,1,15,16
2007-05-15 00:00:00,,,,38.56,38.63,37.78,,,,,,
2007-05-16 00:00:00,,,,38.025,38.15,37.315,,,,,,
2007-05-17 00:00:00,,,,37.9,38.66,37.4,,,,1,15,16
2007-05-18 00:00:00,,,,38.405,39.295,38.3,,,,1,14,16
2007-05-21 00:00:00,,,,39.26,39.605,38.915,,,,1,14,16
2007-05-22 00:00:00,,,,39.265,39.525,38.69,,,,1,15,16
2007-05-23 00:00:00,,,,39,39.575,38.715,,,,1,15,16
2007-05-24 00:00:00,,,,38.935,39.225,37.73,,,,1,15,16
2007-05-25 00:00:00,,,,38.4,38.6,37.87,,,,,,
2007-05-29 00:00:00,,,,38.115,38.35,37.475,,,,1,15,16
2007-05-30 00:00:00,,,,37.84,38.93,37.69,,,,1,15,16
2007-05-31 00:00:00,,,,39.16,39.25,38.38,,,,,,
2007-06-01 00:00:00,,,,38.955,39.125,38.465,,,,,,
2007-06-04 00:00:00,,,,38.31,39.55,38.26,,,,1,15,16
2007-06-05 00:00:00,,,,39.1,39.34,38.8,,,,1,15,16
2007-06-06 00:00:00,,,,38.97,39,38,,,,1,15,15
2007-06-07 00:00:00,,,,38.04,38.78,37.33,,,,1,15,15
2007-06-08 00:00:00,,,,37.01,37.69,36.705,,,,1,15,15
2007-06-11 00:00:00,,,,37.65,38.185,37.405,,,,,,
2007-06-12 00:00:00,,,,37.83,38.615,37.53,,,,1,15,15
2007-06-13 00:00:00,,,,38.05,38.84,38.025,,,,,,
2007-06-14 00:00:00,,,,38.805,40.125,38.765,,,,,,
2007-06-15 00:00:00,,,,40.195,40.36,39.66,,,,,,
2007-06-18 00:00:00,,,,40.695,40.745,40.055,,,,,,
2007-06-19 00:00:00,,,,39.975,40.07,39.64,,,,,,
2007-06-20 00:00:00,,,,39.85,40.2,38.305,,,,1,15,15
2007-06-21 00:00:00,,,,38.92,39.49,38.53,,,,1,15,15
2007-06-22 00:00:00,,,,39.05,39.3,37.69,,,,,,
2007-06-25 00:00:00,,,,37.605,37.745,36.835,,,,1,15,15
2007-06-26 00:00:00,,,,37.445,37.515,36.1,,,,1,15,15
2007-06-27 00:00:00,,,,35.705,36.96,35.665,,,,,,
2007-06-28 00:00:00,,,,37.06,37.42,35.93,,,,,,
2007-06-29 00:00:00,,,,36.615,37.35,36.42,,,,,,
2007-07-02 00:00:00,,,,36.7,37.065,36.295,,,,1,15,15
2007-07-03 00:00:00,,,,37.04,37.595,36.855,,,,1,15,15
2007-07-05 00:00:00,,,,37.34,37.655,36.9,,,,1,15,15
2007-07-06 00:00:00,,,,37.75,37.96,37.38,,,,1,14,16
2007-07-09 00:00:00,,,,37.265,37.745,37.03,,,,1,13,17
2007-07-10 00:00:00,,,,37.03,37.73,36.91,,,,1,13,17
2007-07-11 00:00:00,,,,36.575,37.285,36.575,,,,,,
2007-07-12 00:00:00,,,,37.49,37.62,36.825,,,,,,
2007-07-13 00:00:00,,,,37.04,37.75,37.04,,,,,,
2007-07-16 00:00:00,,,,37.315,37.43,36.055,,,,,,
2007-07-17 00:00:00,,,,36.87,37.17,36.27,,,,1,13,17
2007-07-18 00:00:00,,,,36.115,37.665,36.1,,,,1,13,17
2007-07-19 00:00:00,,,,37.6,38.215,37.475,,,,1,13,17
2007-07-20 00:00:00,,,,38.295,38.46,37.36,,,,2,13,16
2007-07-23 00:00:00,,,,36.5,36.75,35.7,,,,2,13,16
2007-07-24 00:00:00,,,,35.255,35.65,34.96,,,,,,
2007-07-25 00:00:00,,,,35.4,35.735,34.5,,,,,,
2007-07-26 00:00:00,,,,35.43,35.565,34.165,,,,,,
2007-07-27 00:00:00,,,,34.975,35.535,34.205,,,,2,13,16
2007-07-30 00:00:00,,,,34.875,35.84,34.795,,,,,,
2007-07-31 00:00:00,,,,36.125,36.275,34.945,,,,2,13,16
2007-08-01 00:00:00,,,,35.39,36.22,34.635,,,,2,13,16
2007-08-02 00:00:00,,,,36.22,37.135,35.58,,,,,,
2007-08-03 00:00:00,,,,35.9,36.75,35.12,,,,2,13,16
2007-08-06 00:00:00,,,,34.945,35.37,33.86,,,,2,12,17
2007-08-07 00:00:00,,,,35.065,36.19,34.675,,,,2,12,17
2007-08-08 00:00:00,,,,36.5,37.725,36.215,,,,,,
2007-08-09 00:00:00,,,,36.165,37.915,35.545,,,,2,12,17
2007-08-10 00:00:00,,,,35.67,36.235,35.315,,,,2,12,17
2007-08-13 00:00:00,,,,36.41,36.5,35.73,,,,,,
2007-08-14 00:00:00,,,,35.87,36.07,35.1,,,,,,
2007-08-15 00:00:00,,,,35.715,35.93,34.18,,,,,,
2007-08-16 00:00:00,,,,33.75,34.74,32.8,,,,2,12,17
2007-08-17 00:00:00,,,,35.375,36.03,34.69,,,,2,12,17
2007-08-20 00:00:00,,,,35.3,35.41,34.255,,,,2,12,17
2007-08-21 00:00:00,,,,34.535,34.855,33.765,,,,,,
2007-08-22 00:00:00,,,,34.4,34.49,33.11,,,,,,
2007-08-23 00:00:00,,,,33.85,33.885,32.96,,,,2,12,18
2007-08-24 00:00:00,,,,33.8,34.095,33.46,,,,2,12,17
2007-08-27 00:00:00,,,,33.75,33.76,33.225,,,,,,
2007-08-28 00:00:00,,,,33.18,33.33,32.645,,,,,,
2007-08-29 00:00:00,,,,33.13,33.49,32.78,,,,2,12,17
2007-08-30 00:00:00,,,,33.2,33.99,33.05,,,,2,12,16
2007-08-31 00:00:00,,,,33.775,34.215,33.63,,,,,,
2007-09-04 00:00:00,,,,33.505,34.925,33.43,,,,2,12,16
2007-09-05 00:00:00,,,,34.56,35.08,34.5,,,,1,12,17
2007-09-06 00:00:00,,,,35.05,35.795,34.955,,,,1,12,16
2007-09-07 00:00:00,,,,35.035,35.135,34.525,,,,1,12,16
2007-09-10 00:00:00,,,,34.95,35.275,34.205,,,,,,
2007-09-11 00:00:00,,,,35.31,35.77,34.595,,,,1,12,16
2007-09-12 00:00:00,,,,35.8,36.73,35.705,,,,,,
2007-09-13 00:00:00,,,,36.225,36.38,35.73,,,,1,12,16
2007-09-14 00:00:00,,,,35.505,36.325,35.505,,,,,,
2007-09-17 00:00:00,,,,36.15,36.405,35.785,,,,1,12,17
2007-09-18 00:00:00,,,,36,36.965,35.395,,,,,,
2007-09-19 00:00:00,,,,37.35,37.49,36.9,,,,1,12,17
2007-09-20 00:00:00,,,,36.93,37.18,36.595,,,,1,12,17
2007-09-21 00:00:00,,,,37.31,37.625,37.085,,,,1,12,17
2007-09-24 00:00:00,,,,37.2,37.43,36.635,,,,,,
2007-09-25 00:00:00,,,,36.475,36.625,35.815,,,,,,
2007-09-26 00:00:00,,,,36.725,36.975,35.855,,,,1,12,17
2007-09-27 00:00:00,,,,36.5,36.565,35.82,,,,,,
2007-09-28 00:00:00,,,,36.375,36.545,35.955,,,,,,
2007-10-01 00:00:00,,,,36.26,36.705,36.1,,,,1,12,16
2007-10-02 00:00:00,,,,36.47,37.485,36.365,,,,1,12,16
2007-10-03 00:00:00,,,,37.17,37.46,36.855,,,,1,12,16
2007-10-04 00:00:00,,,,37.31,38.5,37.065,,,,1,12,16
2007-10-05 00:00:00,,,,38.205,38.95,38.12,,,,,,
2007-10-08 00:00:00,,,,38.345,38.63,38.03,,,,,,
2007-10-09 00:00:00,,,,38.335,39.42,38.335,,,,1,12,16
2007-10-10 00:00:00,,,,38.915,40,38.815,,,,1,12,16
2007-10-11 00:00:00,,,,40,41.3,39.92,,,,,,
2007-10-12 00:00:00,,,,40.205,40.925,40.11,,,,,,
2007-10-15 00:00:00,,,,41.285,41.635,40.56,,,,1,12,16
2007-10-16 00:00:00,,,,40.74,41.15,40.635,,,,1,12,16
2007-10-17 00:00:00,,,,41,41.275,40.45,,,,1,12,15
2007-10-18 00:00:00,,,,40.8,41.36,40.65,,,,1,12,15
2007-10-19 00:00:00,,,,40.94,41.025,39.83,,,,,,
2007-10-22 00:00:00,,,,38.36,39.235,38.35,,,,1,12,15
2007-10-23 00:00:00,,,,39.665,39.88,38.435,,,,,,
2007-10-24 00:00:00,,,,38.675,39.525,38.2,,,,,,
2007-10-25 00:00:00,,,,39.585,40.535,39.49,,,,1,12,15
2007-10-26 00:00:00,,,,41.12,41.455,40.385,,,,1,12,15
2007-10-29 00:00:00,,,,41.245,41.37,40.895,,,,1,12,15
2007-10-30 00:00:00,,,,42.25,43.16,42,,,,1,12,15
2007-10-31 00:00:00,,,,43.5,44.85,43.15,,,,1,12,15
2007-11-01 00:00:00,,,,43.84,44.25,43.005,,,,1,12,15
2007-11-02 00:00:00,,,,43.74,43.835,43.035,,,,1,12,15
2007-11-05 00:00:00,,,,43.08,43.745,42.875,,,,,,
2007-11-06 00:00:00,,,,44,44.405,43.885,,,,1,12,15
2007-11-07 00:00:00,,,,44.105,44.55,43.35,,,,1,12,15
2007-11-08 00:00:00,,,,43.905,44.77,43.23,,,,,,
2007-11-09 00:00:00,,,,43.45,44.155,43.175,,,,1,12,15
2007-11-12 00:00:00,,,,42.765,43.01,42.095,,,,1,12,15
2007-11-13 00:00:00,,,,42.25,42.91,41.39,,,,0,12,16
2007-11-14 00:00:00,,,,43.65,44.34,43.3,,,,0,12,16
2007-11-15 00:00:00,,,,43.405,43.585,42.1,,,,,,
2007-11-16 00:00:00,,,,43.035,43.33,42.275,,,,0,11,17
2007-11-19 00:00:00,,,,42.65,42.945,41.895,,,,0,11,17
2007-11-20 00:00:00,,,,42.3,42.545,41.43,,,,0,11,17
2007-11-21 00:00:00,,,,41.4,41.93,41.02,,,,,,
2007-11-23 00:00:00,,,,41.33,42.01,41.045,,,,,,
2007-11-26 00:00:00,,,,42.16,42.63,41.45,,,,,,
2007-11-27 00:00:00,,,,40.635,41.315,40.405,,,,,,
2007-11-28 00:00:00,,,,41.335,41.925,41.005,,,,0,11,17
2007-11-29 00:00:00,,,,41.995,42.43,41.325,,,,0,11,17
2007-11-30 00:00:00,,,,41.25,42.015,41,,,,0,11,17
2007-12-03 00:00:00,,,,41.18,41.8,40.925,,,,0,11,17
2007-12-04 00:00:00,,,,41.31,41.625,40.785,,,,0,11,17
2007-12-05 00:00:00,,,,41.88,42.83,41.71,,,,,,
2007-12-06 00:00:00,,,,42.61,44.6,42.5,,,,,,
2007-12-07 00:00:00,,,,44.33,44.58,43.53,,,,,,
2007-12-10 00:00:00,,,,44.48,44.5,43.84,,,,0,11,17
2007-12-11 00:00:00,,,,44.695,45.12,43.91,,,,,,
2007-12-12 00:00:00,,,,44.84,45.725,44.78,,,,,,
2007-12-13 00:00:00,,,,44.845,45.815,44.54,,,,,,
2007-12-14 00:00:00,,,,44.665,45.06,44.145,,,,1,12,15
2007-12-17 00:00:00,,,,44.1,44.525,43.4,,,,1,12,15
2007-12-18 00:00:00,,,,44.395,44.45,43.325,,,,,,
2007-12-19 00:00:00,,,,43.835,44.58,43.66,,,,,,
2007-12-20 00:00:00,,,,44.49,44.985,44.185,,,,,,
2007-12-21 00:00:00,,,,45.305,45.38,44.93,,,,1,12,15
2007-12-24 00:00:00,,,,45.185,45.72,44.99,,,,,,
2007-12-26 00:00:00,,,,45.395,45.625,45.06,,,,,,
2007-12-27 00:00:00,,,,45.14,45.405,44.785,,,,,,
2007-12-28 00:00:00,,,,45.03,45.61,44.855,,,,,,
2007-12-31 00:00:00,,,,45.365,45.665,44.545,,,,,,
2008-01-02 00:00:00,,,,45,46,45,,,,1,12,15
2008-01-03 00:00:00,,,,45.65,47.18,45.555,,,,1,11,16
2008-01-04 00:00:00,,,,45.65,45.82,44.41,,,,1,11,15
2008-01-07 00:00:00,,,,44.485,44.675,43.57,,,,1,11,15
2008-01-08 00:00:00,,,,44.765,45.39,43.34,,,,1,11,15
2008-01-09 00:00:00,,,,43.625,44.76,43.625,,,,1,11,15
2008-01-10 00:00:00,,,,44.165,44.75,43.77,,,,,,
2008-01-11 00:00:00,,,,43.945,44.765,43.785,,,,1,11,15
2008-01-14 00:00:00,,,,45.25,46.78,44.86,,,,1,11,15
2008-01-15 00:00:00,,,,45.625,46.47,45.195,,,,1,11,15
2008-01-16 00:00:00,,,,45.38,45.92,43.975,,,,1,11,15
2008-01-17 00:00:00,,,,44.44,45.335,41.995,,,,1,11,15
2008-01-18 00:00:00,,,,42.025,43.185,41.615,,,,1,11,15
2008-01-22 00:00:00,,,,40.64,42.42,39.75,,,,1,11,15
2008-01-23 00:00:00,,,,40.335,41.37,38.59,,,,,,
2008-01-24 00:00:00,,,,41.465,43.075,41.37,,,,1,12,14
2008-01-25 00:00:00,,,,43.41,43.695,41.68,,,,1,12,14
2008-01-28 00:00:00,,,,42.205,42.705,41.265,,,,,,
2008-01-29 00:00:00,,,,42.875,43.125,42.06,,,,1,12,14
2008-01-30 00:00:00,,,,42.575,44.485,42.51,,,,1,12,13
2008-01-31 00:00:00,,,,41.98,44.06,41.95,,,,,,
2008-02-01 00:00:00,,,,43.905,44.725,43.46,,,,1,12,13
2008-02-04 00:00:00,,,,44.835,45.515,44.43,,,,1,12,12
2008-02-05 00:00:00,,,,44.085,45.015,43.75,,,,1,12,12
2008-02-06 00:00:00,,,,44.22,44.83,43.605,,,,,,
2008-02-07 00:00:00,,,,44.01,45.5,43.815,,,,1,12,12
2008-02-08 00:00:00,,,,46.05,47.655,45.8,,,,1,13,11
2008-02-11 00:00:00,,,,46.905,49.27,46.57,,,,2,13,11
2008-02-12 00:00:00,,,,49.175,50.25,48.395,,,,2,13,11
2008-02-13 00:00:00,,,,49.555,50.375,49.305,,,,2,13,11
2008-02-14 00:00:00,,,,49.83,50.24,48.81,,,,2,12,12
2008-02-15 00:00:00,,,,48.25,48.5,46.9,,,,,,
2008-02-19 00:00:00,,,,49.725,50.105,48.755,,,,,,
2008-02-20 00:00:00,,,,48.525,50.49,48.525,,,,2,12,12
2008-02-21 00:00:00,,,,50.045,50.265,48.735,,,,,,
2008-02-22 00:00:00,,,,49.19,49.78,48.485,,,,,,
2008-02-25 00:00:00,,,,50.01,52.335,50.01,,,,2,12,12
2008-02-26 00:00:00,,,,51.65,54.35,51.185,,,,,,
2008-02-27 00:00:00,,,,53.25,54.045,52.735,,,,2,11,13
2008-02-28 00:00:00,,,,59.375,64.95,58.415,,,,2,9,14
2008-02-29 00:00:00,,,,61.425,61.925,58.97,,,,3,10,14
2008-03-03 00:00:00,,,,59.62,61.725,59.045,,,,3,10,14
2008-03-04 00:00:00,,,,60,61.155,58.3,,,,4,10,13
2008-03-05 00:00:00,,,,60.7,60.815,59.59,,,,4,10,13
2008-03-06 00:00:00,,,,60.195,60.32,58.665,,,,4,10,13
2008-03-07 00:00:00,,,,58.65,59.215,57.48,,,,,,
2008-03-10 00:00:00,,,,58.06,58.06,56.77,,,,4,10,13
2008-03-11 00:00:00,,,,59,61.1,58.22,,,,4,10,13
2008-03-12 00:00:00,,,,60.38,60.58,58.685,,,,4,10,13
2008-03-13 00:00:00,,,,59.005,64.075,58.98,,,,4,10,13
2008-03-14 00:00:00,,,,63.005,63.435,61.52,,,,,,
2008-03-17 00:00:00,,,,61.125,62.085,58.6,,,,4,10,13
2008-03-18 00:00:00,,,,61.605,61.735,60.415,,,,4,10,13
2008-03-19 00:00:00,,,,61.4,61.735,56.475,,,,4,10,13
2008-03-20 00:00:00,,,,53.005,56.29,52.95,,,,4,10,13
2008-03-24 00:00:00,,,,56.375,57.945,55.735,,,,4,10,13
2008-03-25 00:00:00,,,,57.485,58.875,56.725,,,,4,10,13
2008-03-26 00:00:00,,,,58.645,60.78,58.635,,,,4,10,13
2008-03-27 00:00:00,,,,60.185,60.925,58.93,,,,,,
2008-03-28 00:00:00,,,,58.835,60.415,58.765,,,,4,10,13
2008-03-31 00:00:00,,,,59.68,60.965,58.76,,,,,,
2008-04-01 00:00:00,,,,59.715,60.865,58.88,,,,,,
2008-04-02 00:00:00,,,,60.51,61.83,59.39,,,,,,
2008-04-03 00:00:00,,,,60.81,61.79,60.43,,,,4,10,13
2008-04-04 00:00:00,,,,61.25,62.64,61.07,,,,4,10,13
2008-04-07 00:00:00,,,,62.49,64.285,62.25,,,,4,10,14
2008-04-08 00:00:00,,,,62.625,64.72,62.625,,,,4,10,14
2008-04-09 00:00:00,,,,63.575,65,63.325,,,,4,10,14
2008-04-10 00:00:00,,,,64.26,65.185,63.795,,,,,,
2008-04-11 00:00:00,,,,64.175,64.595,62.845,,,,4,10,14
2008-04-14 00:00:00,,,,63.78,64.795,63.305,,,,,,
2008-04-15 00:00:00,,,,65.605,65.895,64.45,,,,,,
2008-04-16 00:00:00,,,,65.625,66.5,64.76,,,,,,
2008-04-17 00:00:00,,,,66.35,67.46,65.59,,,,,,
2008-04-18 00:00:00,,,,65.975,67.255,65.3,,,,4,10,14
2008-04-21 00:00:00,,,,67.16,69.275,67.155,,,,4,10,14
2008-04-22 00:00:00,,,,68.705,70.24,68.23,,,,4,10,14
2008-04-23 00:00:00,,,,68.75,69,67.405,,,,4,10,14
2008-04-24 00:00:00,,,,68.115,68.12,65.45,,,,,,
2008-04-25 00:00:00,,,,66.37,68.155,65.455,,,,,,
2008-04-28 00:00:00,,,,68.39,68.57,66.91,,,,,,
2008-04-29 00:00:00,,,,65.83,66.31,63.95,,,,4,10,14
2008-04-30 00:00:00,,,,64.76,65.485,63.735,,,,4,10,14
2008-05-01 00:00:00,,,,64.58,64.605,61.36,,,,4,10,13
2008-05-02 00:00:00,,,,64.69,65,61.975,,,,4,11,12
2008-05-05 00:00:00,,,,64.405,66.795,64.405,,,,4,10,13
2008-05-06 00:00:00,,,,66.5,69.075,66.5,,,,4,10,13
2008-05-07 00:00:00,,,,69.2,69.58,67.43,,,,,,
2008-05-08 00:00:00,,,,67.31,70.065,67.1,,,,,,
2008-05-09 00:00:00,,,,70.175,70.25,67.99,,,,4,10,13
2008-05-12 00:00:00,,,,68.85,68.91,67.575,,,,4,10,13
2008-05-13 00:00:00,,,,68.56,69.525,67.18,,,,,,
2008-05-14 00:00:00,,,,69.43,69.86,67.255,,,,4,10,13
2008-05-15 00:00:00,,,,68.5,69.2,66.435,,,,4,10,12
2008-05-16 00:00:00,,,,69.1,70.6,68.565,,,,4,10,13
2008-05-19 00:00:00,,,,70.625,70.965,69.575,,,,,,
2008-05-20 00:00:00,,,,70.34,72.14,69.6,,,,4,10,13
2008-05-21 00:00:00,,,,72.16,72.41,69.39,,,,,,
2008-05-22 00:00:00,,,,68.995,70.25,67.725,,,,4,10,13
2008-05-23 00:00:00,,,,69,69.475,66.215,,,,,,
2008-05-27 00:00:00,,,,66.815,67.375,66.03,,,,,,
2008-05-28 00:00:00,,,,65.64,67.22,65.025,,,,,,
2008-05-29 00:00:00,,,,66.01,66.45,63.69,,,,,,
2008-05-30 00:00:00,,,,64.25,65.155,62.87,,,,4,10,12
2008-06-02 00:00:00,,,,64.75,65.155,62.955,,,,4,10,12
2008-06-03 00:00:00,,,,63.675,64.425,61.87,,,,,,
2008-06-04 00:00:00,,,,61.495,63.3,61.395,,,,,,
2008-06-05 00:00:00,,,,62.935,65.645,62.665,,,,,,
2008-06-06 00:00:00,,,,67.5,68.625,64.405,,,,4,10,12
2008-06-09 00:00:00,,,,64.875,66.855,64.54,,,,,,
2008-06-10 00:00:00,,,,66.24,66.24,63.125,,,,4,10,12
2008-06-11 00:00:00,,,,64.8,65.005,63.285,,,,4,10,12
2008-06-12 00:00:00,,,,65.055,65.425,63.92,,,,4,10,12
2008-06-13 00:00:00,,,,63.5,65.47,63.32,,,,4,10,12
2008-06-16 00:00:00,,,,65.775,66.43,64.205,,,,4,9,12
2008-06-17 00:00:00,,,,64.69,66.315,64.69,,,,4,10,12
2008-06-18 00:00:00,,,,65.825,66.685,64.73,,,,,,
2008-06-19 00:00:00,,,,67.21,67.55,65.1,,,,4,10,12
2008-06-20 00:00:00,,,,65.825,66.64,64.615,,,,,,
2008-06-23 00:00:00,,,,65.02,67.785,64.7,,,,4,10,12
2008-06-24 00:00:00,,,,66.625,67.1,65.185,,,,,,
2008-06-25 00:00:00,,,,65.195,65.475,62.415,,,,,,
2008-06-26 00:00:00,,,,64.765,64.91,62.85,,,,4,10,12
2008-06-27 00:00:00,,,,63.69,65.375,63.175,,,,4,10,12
2008-06-30 00:00:00,,,,66.92,66.995,65.415,,,,4,10,12
2008-07-01 00:00:00,,,,65.92,66.525,65,,,,4,10,12
2008-07-02 00:00:00,,,,66.3,66.88,62.27,,,,,,
2008-07-03 00:00:00,,,,62.75,62.75,59.87,,,,,,
2008-07-07 00:00:00,,,,58.795,60.25,57.245,,,,4,10,12
2008-07-08 00:00:00,,,,57.155,58.94,55.065,,,,,,
2008-07-09 00:00:00,,,,59.25,59.815,55.585,,,,4,10,12
2008-07-10 00:00:00,,,,56.75,58.335,55.775,,,,4,10,12
2008-07-11 00:00:00,,,,59,59.685,57.855,,,,,,
2008-07-14 00:00:00,,,,59.585,60.24,58.36,,,,,,
2008-07-15 00:00:00,,,,58.925,59.935,55.74,,,,4,10,12
2008-07-16 00:00:00,,,,55.215,55.685,52.915,,,,4,10,12
2008-07-17 00:00:00,,,,55.245,55.54,50.94,,,,3,10,13
2008-07-18 00:00:00,,,,52.91,54.65,52.05,,,,3,10,13
2008-07-21 00:00:00,,,,54,55.045,52.685,,,,2,10,14
2008-07-22 00:00:00,,,,53.995,54.63,51.85,,,,2,11,14
2008-07-23 00:00:00,,,,52.87,53.825,51.025,,,,,,
2008-07-24 00:00:00,,,,52.375,53.01,49.36,,,,,,
2008-07-25 00:00:00,,,,51.67,52.995,51.4,,,,,,
2008-07-28 00:00:00,,,,52.47,53.49,50.935,,,,,,
2008-07-29 00:00:00,,,,50.45,50.625,49.075,,,,2,11,14
2008-07-30 00:00:00,,,,49.755,52.65,49.01,,,,2,11,14
2008-07-31 00:00:00,,,,52.4,52.665,50.08,,,,2,14,11
2008-08-01 00:00:00,,,,50.87,52.325,49.915,,,,1,14,12
2008-08-04 00:00:00,,,,49.995,50.105,46.25,,,,,,
2008-08-05 00:00:00,,,,46.135,47.495,45.555,,,,1,14,12
2008-08-06 00:00:00,,,,47.2,49.125,47.2,,,,,,
2008-08-07 00:00:00,,,,49.415,49.885,47.7,,,,1,14,12
2008-08-08 00:00:00,,,,47.5,47.53,46.4,,,,,,
2008-08-11 00:00:00,,,,47.385,47.87,46.03,,,,1,14,12
2008-08-12 00:00:00,,,,48.26,49.535,47.63,,,,,,
2008-08-13 00:00:00,,,,47.66,50.005,47.575,,,,,,
2008-08-14 00:00:00,,,,49.375,49.98,47.93,,,,,,
2008-08-15 00:00:00,,,,48.03,48.165,46.965,,,,1,14,12
2008-08-18 00:00:00,,,,48.265,48.7,47.19,,,,,,
2008-08-19 00:00:00,,,,47.94,50.125,47.57,,,,,,
2008-08-20 00:00:00,,,,51.01,52.915,50.875,,,,,,
2008-08-21 00:00:00,,,,53.675,54,52.235,,,,,,
2008-08-22 00:00:00,,,,52.325,53.055,50.8,,,,1,14,12
2008-08-25 00:00:00,,,,51.925,52.105,50.415,,,,,,
2008-08-26 00:00:00,,,,53.19,54.425,52.915,,,,1,15,11
2008-08-27 00:00:00,,,,55.77,55.77,54.02,,,,,,
2008-08-28 00:00:00,,,,54.89,55,51.545,,,,1,15,11
2008-08-29 00:00:00,,,,53.1,53.265,51.88,,,,,,
2008-09-02 00:00:00,,,,49.775,49.795,47.565,,,,,,
2008-09-03 00:00:00,,,,48.25,48.52,45.8,,,,,,
2008-09-04 00:00:00,,,,47.315,47.915,45.03,,,,,,
2008-09-05 00:00:00,,,,47.5,48.185,46.045,,,,1,16,10
2008-09-08 00:00:00,,,,48.405,48.59,45.75,,,,,,
2008-09-09 00:00:00,,,,45.61,45.61,42.175,,,,,,
2008-09-10 00:00:00,,,,43.135,44.95,43.02,,,,1,16,10
2008-09-11 00:00:00,,,,43.18,44.68,41.7,,,,,,
2008-09-12 00:00:00,,,,44.745,45.705,44.445,,,,,,
2008-09-15 00:00:00,,,,43.205,44.605,42.295,,,,,,
2008-09-16 00:00:00,,,,41.15,43.63,40.065,,,,1,16,10
2008-09-17 00:00:00,,,,43.455,45.86,42.03,,,,1,16,10
2008-09-18 00:00:00,,,,46.375,47.395,43.83,,,,,,
2008-09-19 00:00:00,,,,47.5,50.195,47,,,,1,16,10
2008-09-22 00:00:00,,,,48.775,50.21,47.63,,,,1,16,10
2008-09-23 00:00:00,,,,48.29,49.925,46.93,,,,,,
2008-09-24 00:00:00,,,,47.82,48.845,47.145,,,,1,16,10
2008-09-25 00:00:00,,,,47.525,48.885,47.09,,,,,,
2008-09-26 00:00:00,,,,47.3,47.9,44.91,,,,1,16,10
2008-09-29 00:00:00,,,,44.775,44.775,39.91,,,,1,16,10
2008-09-30 00:00:00,,,,43.41,45.365,43.105,,,,1,16,10
2008-10-01 00:00:00,,,,43.825,45.395,41.59,,,,1,16,10
2008-10-02 00:00:00,,,,44.25,44.25,39.23,,,,1,16,10
2008-10-03 00:00:00,,,,40.15,43.11,39.775,,,,,,
2008-10-06 00:00:00,,,,37.5,37.995,33.595,,,,1,16,10
2008-10-07 00:00:00,,,,38.8,39.225,35.58,,,,1,16,10
2008-10-08 00:00:00,,,,34.125,37.305,32.955,,,,1,16,10
2008-10-09 00:00:00,,,,36.035,36.865,32.18,,,,1,17,9
2008-10-10 00:00:00,,,,30.25,32.345,27.21,,,,0,17,10
2008-10-13 00:00:00,,,,31.255,35.99,30.895,,,,0,17,10
2008-10-14 00:00:00,,,,38.04,38.48,34.06,,,,0,17,10
2008-10-15 00:00:00,,,,34.125,34.125,30.02,,,,0,17,10
2008-10-16 00:00:00,,,,30.89,35.06,29.975,,,,0,17,10
2008-10-17 00:00:00,,,,33.25,38.525,32.775,,,,0,17,10
2008-10-20 00:00:00,,,,35.5,38.05,35.5,,,,0,18,9
2008-10-21 00:00:00,,,,36.055,37.71,34.75,,,,0,18,9
2008-10-22 00:00:00,,,,34.495,34.73,31.72,,,,0,18,9
2008-10-23 00:00:00,,,,33.68,34.325,30.305,,,,0,18,9
2008-10-24 00:00:00,,,,29.645,33.755,29.395,,,,0,18,9
2008-10-27 00:00:00,,,,31.5,34.325,31.14,,,,0,18,9
2008-10-28 00:00:00,,,,32.505,34.045,29.99,,,,0,18,9
2008-10-29 00:00:00,,,,34.39,38.235,34.04,,,,0,18,9
2008-10-30 00:00:00,,,,37.55,38.815,35.96,,,,0,18,9
2008-10-31 00:00:00,,,,37.75,41.315,36.505,,,,0,18,9
2008-11-03 00:00:00,,,,39.255,39.535,37.175,,,,0,18,9
2008-11-04 00:00:00,,,,39,42.745,38.785,,,,0,18,10
2008-11-05 00:00:00,,,,40.875,42.475,40.135,,,,0,18,10
2008-11-06 00:00:00,,,,40,40.25,37.52,,,,0,17,11
2008-11-07 00:00:00,,,,39.715,41.135,38.495,,,,0,18,10
2008-11-10 00:00:00,,,,41.69,42.485,39.42,,,,0,18,10
2008-11-11 00:00:00,,,,39.46,40.55,38.35,,,,0,18,10
2008-11-12 00:00:00,,,,37.915,39.34,37.77,,,,0,17,11
2008-11-13 00:00:00,,,,38.705,42.93,36.365,,,,0,17,11
2008-11-14 00:00:00,,,,41.75,42.915,40,,,,0,17,11
2008-11-17 00:00:00,,,,40.035,42.205,39.57,,,,0,17,11
2008-11-18 00:00:00,,,,40.485,42.035,39.1,,,,0,16,12
2008-11-19 00:00:00,,,,41.55,42.04,38.335,,,,0,16,12
2008-11-20 00:00:00,,,,37.93,38,32,,,,0,16,12
2008-11-21 00:00:00,,,,33.015,37.69,32.595,,,,0,16,12
2008-11-24 00:00:00,,,,38.535,43.085,37.785,,,,0,16,12
2008-11-25 00:00:00,,,,41.62,42.715,40.675,,,,0,16,12
2008-11-26 00:00:00,,,,42.455,44.44,40.425,,,,0,16,12
2008-11-28 00:00:00,,,,43.25,43.735,41.08,,,,,,
2008-12-01 00:00:00,,,,40.44,41.375,37.825,,,,0,16,12
2008-12-02 00:00:00,,,,39.385,40.14,37.905,,,,0,16,12
2008-12-03 00:00:00,,,,39.19,40.955,38.795,,,,0,16,12
2008-12-04 00:00:00,,,,38.93,39.26,33.755,,,,0,15,13
2008-12-05 00:00:00,,,,33.83,34.155,31.45,,,,0,15,13
2008-12-08 00:00:00,,,,36.025,36.485,33.67,,,,0,15,13
2008-12-09 00:00:00,,,,34.17,36.685,33.67,,,,0,15,13
2008-12-10 00:00:00,,,,35.905,37.945,35.775,,,,0,15,13
2008-12-11 00:00:00,,,,37.535,39.18,35.71,,,,0,15,13
2008-12-12 00:00:00,,,,34.17,34.845,33.395,,,,0,15,13
2008-12-15 00:00:00,,,,35.5,35.825,33.715,,,,0,15,13
2008-12-16 00:00:00,,,,35.415,35.67,34.38,,,,,,
2008-12-17 00:00:00,,,,35.095,36.34,34.66,,,,0,15,13
2008-12-18 00:00:00,,,,34.765,34.91,32.13,,,,0,15,13
2008-12-19 00:00:00,,,,32.58,33.37,32,,,,0,15,13
2008-12-22 00:00:00,,,,32.08,32.44,29.945,,,,0,15,13
2008-12-23 00:00:00,,,,30.855,32.295,30.55,,,,0,15,13
2008-12-24 00:00:00,,,,31.35,31.5,30.77,,,,,,
2008-12-26 00:00:00,,,,31.7,32.285,31.51,,,,,,
2008-12-29 00:00:00,,,,32.78,33.25,32.175,,,,,,
2008-12-30 00:00:00,,,,32.755,32.985,31.925,,,,,,
2008-12-31 00:00:00,,,,32.585,33.88,32.345,,,,,,
2009-01-02 00:00:00,,,,33.7,35.45,33.655,,,,0,15,13
2009-01-05 00:00:00,,,,35.165,36.415,34.82,,,,,,
2009-01-06 00:00:00,,,,36,36.195,35.26,,,,0,15,13
2009-01-07 00:00:00,,,,34.43,35.21,33.305,,,,0,15,13
2009-01-08 00:00:00,,,,34.265,35.155,33.875,,,,0,15,13
2009-01-09 00:00:00,,,,35.15,35.325,33.085,,,,0,15,13
2009-01-12 00:00:00,,,,32.775,32.81,31.275,,,,0,15,13
2009-01-13 00:00:00,,,,32.015,33.845,31.49,,,,,,
2009-01-14 00:00:00,,,,32.8,33.155,31.375,,,,0,15,13
2009-01-15 00:00:00,,,,31.61,32.325,30.725,,,,0,15,13
2009-01-16 00:00:00,,,,32.5,32.74,31.01,,,,0,15,13
2009-01-19 00:00:00,,,,,,,,,,0,15,13
2009-01-20 00:00:00,,,,31.23,32.44,30.145,,,,0,15,13
2009-01-21 00:00:00,,,,30.725,32.785,30.46,,,,0,15,13
2009-01-22 00:00:00,,,,31.8,32.69,31.005,,,,0,15,13
2009-01-23 00:00:00,,,,30.795,33.815,30.735,,,,0,15,13
2009-01-26 00:00:00,,,,33.91,34.93,33.585,,,,0,16,12
2009-01-27 00:00:00,,,,33.865,33.91,33.025,,,,0,16,12
2009-01-28 00:00:00,,,,34,35.07,33.42,,,,0,16,12
2009-01-29 00:00:00,,,,34.185,34.925,34.035,,,,0,16,12
2009-01-30 00:00:00,,,,35.06,35.355,33.655,,,,0,16,12
2009-02-02 00:00:00,,,,33.36,33.975,33.02,,,,0,16,12
2009-02-03 00:00:00,,,,33.675,34.14,33.155,,,,0,16,12
2009-02-04 00:00:00,,,,34.34,35.03,33.975,,,,0,16,12
2009-02-05 00:00:00,,,,34.185,35.065,33.525,,,,0,16,12
2009-02-06 00:00:00,,,,33.715,34.655,33.22,,,,0,15,13
2009-02-09 00:00:00,,,,34.65,35.58,34.13,,,,0,15,13
2009-02-10 00:00:00,,,,35.715,35.755,32.895,,,,0,15,13
2009-02-11 00:00:00,,,,33.515,33.78,31.675,,,,0,15,13
2009-02-12 00:00:00,,,,31.55,32.325,31.185,,,,0,15,13
2009-02-13 00:00:00,,,,32.3,32.655,31.66,,,,0,15,13
2009-02-17 00:00:00,,,,30.5,30.54,28.04,,,,0,15,13
2009-02-18 00:00:00,,,,28.32,28.535,27.52,,,,0,15,13
2009-02-19 00:00:00,,,,28.595,28.83,27.605,,,,0,15,13
2009-02-20 00:00:00,,,,27.43,28.105,27.085,,,,0,15,13
2009-02-23 00:00:00,,,,28,28.15,25.425,,,,0,15,13
2009-02-24 00:00:00,,,,25.735,26.7,25.475,,,,0,15,13
2009-02-25 00:00:00,,,,26.475,26.675,25.57,,,,,,
2009-02-26 00:00:00,,,,26.48,26.765,25.585,,,,,,
2009-02-27 00:00:00,,,,24.895,25.815,24.44,,,,,,
2009-03-02 00:00:00,,,,24.01,24.84,22.515,,,,0,15,13
2009-03-03 00:00:00,,,,23.185,24.845,22.78,,,,0,15,13
2009-03-04 00:00:00,,,,24.78,26.395,24.675,,,,0,15,13
2009-03-05 00:00:00,,,,24.965,26.42,24.785,,,,0,15,13
2009-03-06 00:00:00,,,,26.625,27.16,25.115,,,,0,15,13
2009-03-09 00:00:00,,,,25.74,26.26,24.995,,,,0,15,12
2009-03-10 00:00:00,,,,26.14,27,25.64,,,,0,15,12
2009-03-11 00:00:00,,,,26.29,27.355,26.265,,,,0,15,12
2009-03-12 00:00:00,,,,27.265,29.545,26.83,,,,0,15,12
2009-03-13 00:00:00,,,,29.645,29.72,28.88,,,,0,15,12
2009-03-16 00:00:00,,,,29.5,31.48,29.37,,,,0,15,12
2009-03-17 00:00:00,,,,30.85,31.55,30.185,,,,0,15,12
2009-03-18 00:00:00,,,,31.16,31.38,29.255,,,,0,15,12
2009-03-19 00:00:00,,,,32.11,32.73,31.555,,,,0,15,12
2009-03-20 00:00:00,,,,32.225,32.495,30.65,,,,0,15,12
2009-03-23 00:00:00,,,,31.85,33.325,31.74,,,,0,15,12
2009-03-24 00:00:00,,,,32.465,32.735,31.64,,,,0,15,12
2009-03-25 00:00:00,,,,31.9,32.945,30.755,,,,0,15,12
2009-03-26 00:00:00,,,,32.195,32.575,30.76,,,,0,15,12
2009-03-27 00:00:00,,,,30.215,30.25,29.44,,,,0,15,12
2009-03-30 00:00:00,,,,28.77,29.14,27.68,,,,0,15,12
2009-03-31 00:00:00,,,,28.87,29.2,27.305,,,,0,15,12
2009-04-01 00:00:00,,,,26.63,28.705,26.555,,,,0,15,12
2009-04-02 00:00:00,,,,29.695,30.7,29.67,,,,0,15,12
2009-04-03 00:00:00,,,,30.04,32.155,29.97,,,,0,15,12
2009-04-06 00:00:00,,,,30.9,31.04,29.815,,,,0,15,12
2009-04-07 00:00:00,,,,29.745,29.885,28.795,,,,0,15,12
2009-04-08 00:00:00,,,,28.645,29.745,27.9,,,,0,15,12
2009-04-09 00:00:00,,,,30.525,31.025,29.835,,,,0,15,12
2009-04-13 00:00:00,,,,30.02,31.38,29.385,,,,0,15,12
2009-04-14 00:00:00,,,,30.525,31.285,30.125,,,,0,15,12
2009-04-15 00:00:00,,,,30.26,30.73,29.225,,,,0,15,12
2009-04-16 00:00:00,,,,30.1,30.15,28.725,,,,0,15,12
2009-04-17 00:00:00,,,,29.6,30.335,29.25,,,,0,15,12
2009-04-20 00:00:00,,,,29.095,29.35,27.925,,,,0,15,12
2009-04-21 00:00:00,,,,27.8,28.51,27.43,,,,0,15,12
2009-04-22 00:00:00,,,,28.125,28.885,27.875,,,,0,15,12
2009-04-23 00:00:00,,,,28.745,30.2,28.37,,,,0,15,12
2009-04-24 00:00:00,,,,31.335,32.08,30.86,,,,0,16,11
2009-04-27 00:00:00,,,,30.275,31.505,30.23,,,,0,16,11
2009-04-28 00:00:00,,,,30.77,32,30.565,,,,0,16,11
2009-04-29 00:00:00,,,,32,33.45,32,,,,0,16,11
2009-04-30 00:00:00,,,,33.035,33.32,31.255,,,,0,16,11
2009-05-01 00:00:00,,,,31.92,33.325,31.645,,,,0,15,12
2009-05-04 00:00:00,,,,33.415,36.075,33.14,,,,0,15,12
2009-05-05 00:00:00,,,,36,36.115,34.505,,,,0,15,12
2009-05-06 00:00:00,,,,36.5,38.82,36.175,,,,0,15,12
2009-05-07 00:00:00,,,,39,39.55,36.23,,,,0,14,13
2009-05-08 00:00:00,,,,37.5,38.785,37.26,,,,0,14,13
2009-05-11 00:00:00,,,,37.63,37.645,36.44,,,,0,14,13
2009-05-12 00:00:00,,,,37.44,37.485,35.48,,,,0,14,13
2009-05-13 00:00:00,,,,36,36.265,34.6,,,,0,14,13
2009-05-14 00:00:00,,,,34.92,35.96,34.595,,,,0,14,13
2009-05-15 00:00:00,,,,35.37,35.885,33.755,,,,0,14,13
2009-05-18 00:00:00,,,,34.99,35.985,34.97,,,,,,
2009-05-19 00:00:00,,,,35.375,36.555,35.375,,,,0,14,13
2009-05-20 00:00:00,,,,36.38,37.41,36.105,,,,0,14,13
2009-05-21 00:00:00,,,,35.335,35.34,34.42,,,,,,
2009-05-22 00:00:00,,,,35.08,35.335,34.485,,,,0,14,13
2009-05-26 00:00:00,,,,32.9,34.74,32.785,,,,1,14,12
2009-05-27 00:00:00,,,,34.775,35.175,33.945,,,,1,14,12
2009-05-28 00:00:00,,,,34.71,36.785,34.4,,,,1,14,12
2009-05-29 00:00:00,,,,36.855,36.9,36.075,,,,1,14,12
2009-06-01 00:00:00,,,,37.595,38.725,37.365,,,,1,14,12
2009-06-02 00:00:00,,,,38,38.265,37.04,,,,1,14,12
2009-06-03 00:00:00,,,,37.335,37.335,35.65,,,,1,14,12
2009-06-04 00:00:00,,,,36.835,37.055,35.875,,,,1,14,12
2009-06-05 00:00:00,,,,37.195,37.395,36.145,,,,1,14,12
2009-06-08 00:00:00,,,,36.3,37.035,35.93,,,,,,
2009-06-09 00:00:00,,,,37.405,37.76,36.74,,,,1,14,12
2009-06-10 00:00:00,,,,37.85,37.85,36.78,,,,,,
2009-06-11 00:00:00,,,,37.75,39.255,37.585,,,,1,14,12
2009-06-12 00:00:00,,,,37.97,38.88,37.815,,,,1,14,12
2009-06-15 00:00:00,,,,38.345,38.71,37.235,,,,,,
2009-06-16 00:00:00,,,,38.375,38.44,36.625,,,,2,14,11
2009-06-17 00:00:00,,,,37.075,37.23,35.855,,,,,,
2009-06-18 00:00:00,,,,36.805,37.05,35.815,,,,2,14,11
2009-06-19 00:00:00,,,,35.825,36.03,34.61,,,,2,14,11
2009-06-22 00:00:00,,,,34.23,34.28,33.26,,,,2,14,11
2009-06-23 00:00:00,,,,33.815,33.87,32.85,,,,2,14,11
2009-06-24 00:00:00,,,,33.75,34.135,33.35,,,,2,14,11
2009-06-25 00:00:00,,,,33.76,34.5,33.71,,,,2,14,11
2009-06-26 00:00:00,,,,34.14,34.595,33.75,,,,2,14,11
2009-06-29 00:00:00,,,,34,34.355,33.365,,,,2,14,11
2009-06-30 00:00:00,,,,33.345,34.245,33.23,,,,2,14,11
2009-07-01 00:00:00,,,,34.735,34.855,33.475,,,,2,14,11
2009-07-02 00:00:00,,,,32.675,32.72,31.925,,,,2,14,11
2009-07-06 00:00:00,,,,31.09,31.455,30.745,,,,2,14,11
2009-07-07 00:00:00,,,,31.005,31.195,30.23,,,,2,14,11
2009-07-08 00:00:00,,,,30.555,31.16,30.15,,,,2,14,11
2009-07-09 00:00:00,,,,31.18,31.5,30.695,,,,2,15,11
2009-07-10 00:00:00,,,,30.545,31.475,30.5,,,,2,15,11
2009-07-13 00:00:00,,,,31.225,31.92,30.69,,,,2,15,11
2009-07-14 00:00:00,,,,32.295,32.535,31.815,,,,2,15,11
2009-07-15 00:00:00,,,,32.615,33.395,32.535,,,,2,15,11
2009-07-16 00:00:00,,,,33.045,34.86,32.9,,,,2,15,11
2009-07-17 00:00:00,,,,34.61,35.205,34.175,,,,2,15,10
2009-07-20 00:00:00,,,,35.37,36.22,35.33,,,,2,15,10
2009-07-21 00:00:00,,,,36.5,36.675,35.55,,,,2,15,10
2009-07-22 00:00:00,,,,35.69,36.25,35.52,,,,2,15,10
2009-07-23 00:00:00,,,,35.605,36.995,35.605,,,,2,15,10
2009-07-24 00:00:00,,,,36.755,37.38,36.655,,,,2,15,10
2009-07-27 00:00:00,,,,37.31,37.48,37,,,,2,15,10
2009-07-28 00:00:00,,,,36.61,37.065,35.76,,,,2,15,10
2009-07-29 00:00:00,,,,35.75,35.92,35.055,,,,,,
2009-07-30 00:00:00,,,,36.05,36.825,35.45,,,,2,15,10
2009-07-31 00:00:00,,,,36.275,37.47,36.01,,,,2,15,10
2009-08-03 00:00:00,,,,37.77,38.845,37.715,,,,2,15,10
2009-08-04 00:00:00,,,,37.945,38.755,37.615,,,,,,
2009-08-05 00:00:00,,,,38.75,39.065,38.065,,,,2,15,10
2009-08-06 00:00:00,,,,39.4,39.805,38.49,,,,2,15,10
2009-08-07 00:00:00,,,,38.455,39.205,37.26,,,,2,15,10
2009-08-10 00:00:00,,,,37.365,38.49,37.365,,,,2,15,10
2009-08-11 00:00:00,,,,37.76,37.92,36.825,,,,2,15,10
2009-08-12 00:00:00,,,,36.98,37.53,36.96,,,,,,
2009-08-13 00:00:00,,,,37.515,37.865,37.2,,,,2,15,10
2009-08-14 00:00:00,,,,37.795,37.85,36.95,,,,2,15,10
2009-08-17 00:00:00,,,,36.57,36.665,35.51,,,,2,15,10
2009-08-18 00:00:00,,,,35.715,36.395,35.63,,,,2,15,10
2009-08-19 00:00:00,,,,35.735,37.285,35.545,,,,2,15,10
2009-08-20 00:00:00,,,,36.89,37.4,36.695,,,,2,15,10
2009-08-21 00:00:00,,,,37.345,38.16,37.075,,,,2,15,10
2009-08-24 00:00:00,,,,38.27,38.46,37.67,,,,2,15,10
2009-08-25 00:00:00,,,,38.28,38.43,37.1,,,,2,15,10
2009-08-26 00:00:00,,,,36.475,37.12,36.325,,,,2,15,10
2009-08-27 00:00:00,,,,36.625,36.825,35.985,,,,2,15,10
2009-08-28 00:00:00,,,,36.845,37.205,36.24,,,,,,
2009-08-31 00:00:00,,,,35.89,36.05,35.575,,,,2,15,9
2009-09-01 00:00:00,,,,35.985,36.43,35.16,,,,2,15,9
2009-09-02 00:00:00,,,,35.16,35.48,34.93,,,,2,15,9
