Date,MSCI_PX_CE,MSCI_Y_ON_Y_GR_TRAIL_EPS,BEST_PE_RATIO,PX_OPEN,PX_HIGH,PX_LOW,PX_OFFICIAL_CLOSE,LISTED_SH,NUM_TRADES,TOT_SELL_REC,TOT_BUY_REC,TOT_HOLD_REC
,,,,26.875,27.375,26.75,,,,0,5,0
2000-05-02 00:00:00,,,,27.125,27.625,27.031,,,,,,
2000-05-03 00:00:00,,,,26.688,26.844,26.313,,,,,,
2000-05-04 00:00:00,,,,26.375,27.125,26.344,,,,,,
2000-05-05 00:00:00,,,,26.531,27.844,26.469,,,,,,
2000-05-08 00:00:00,,,,27.219,27.906,27.188,,,,,,
2000-05-09 00:00:00,,,,27.438,28.188,27.375,,,,,,
2000-05-10 00:00:00,,,,27.75,28.313,27.219,,,,,,
2000-05-11 00:00:00,,,,27.5,28.219,27.469,,,,,,
2000-05-12 00:00:00,,,,27.906,27.938,27.156,,,,,,
2000-05-15 00:00:00,,,,27.438,28.625,27.438,,,,,,
2000-05-16 00:00:00,,,,28.406,28.406,27.656,,,,,,
2000-05-17 00:00:00,,,,28.188,28.188,27.625,,,,,,
2000-05-18 00:00:00,,,,27.625,27.969,27.438,,,,,,
2000-05-19 00:00:00,,,,27.125,27.625,27.125,,,,,,
2000-05-22 00:00:00,,,,27.5,28.063,27.375,,,,,,
2000-05-23 00:00:00,,,,27.719,27.719,26.813,,,,,,
2000-05-24 00:00:00,,,,27.25,27.875,27.25,,,,,,
2000-05-25 00:00:00,,,,26.75,26.781,25.125,,,,,,
2000-05-26 00:00:00,,,,25.688,25.875,25.188,,,,,,
2000-05-30 00:00:00,,,,25.656,26,25.281,,,,,,
2000-05-31 00:00:00,,,,25.25,25.5,24.781,,,,,,
2000-06-01 00:00:00,,,,24.813,24.938,24,,,,,,
2000-06-02 00:00:00,,,,24.75,25.25,24.563,,,,0,5,0
2000-06-05 00:00:00,,,,25,25.156,24.313,,,,,,
2000-06-06 00:00:00,,,,24.5,24.531,24.063,,,,0,5,0
2000-06-07 00:00:00,,,,24.375,24.438,23.969,,,,,,
2000-06-08 00:00:00,,,,24.031,24.25,23.875,,,,,,
2000-06-09 00:00:00,,,,23.969,24,23.813,,,,,,
2000-06-12 00:00:00,,,,24,24.469,23.969,,,,,,
2000-06-13 00:00:00,,,,24.438,24.531,23.5,,,,,,
2000-06-14 00:00:00,,,,23.5,24.219,23.5,,,,0,5,0
2000-06-15 00:00:00,,,,24,24.031,23.25,,,,,,
2000-06-16 00:00:00,,,,23.156,23.469,23.063,,,,0,5,0
2000-06-19 00:00:00,,,,23.188,23.281,22.125,,,,,,
2000-06-20 00:00:00,,,,22.25,22.406,21.25,,,,,,
2000-06-21 00:00:00,,,,22,22.063,20.875,,,,,,
2000-06-22 00:00:00,,,,21.063,21.781,20.781,,,,0,6,0
2000-06-23 00:00:00,,,,21.5,21.656,21.188,,,,,,
2000-06-26 00:00:00,,,,21.656,21.656,21.281,,,,,,
2000-06-27 00:00:00,,,,21.5,22.5,21.313,,,,,,
2000-06-28 00:00:00,,,,22.344,23.094,21.75,,,,,,
2000-06-29 00:00:00,,,,22.625,23.031,22.094,,,,,,
2000-06-30 00:00:00,,,,22.531,22.594,21.969,,,,0,6,0
2000-07-03 00:00:00,,,,22.281,23,22.25,,,,,,
2000-07-05 00:00:00,,,,22.625,22.969,22.188,,,,,,
2000-07-06 00:00:00,,,,22.375,22.375,21.906,,,,,,
2000-07-07 00:00:00,,,,22.094,22.344,21.781,,,,,,
2000-07-10 00:00:00,,,,21.75,22.25,21.656,,,,,,
2000-07-11 00:00:00,,,,21.781,22.75,21.781,,,,,,
2000-07-12 00:00:00,,,,22.656,22.938,22.25,,,,,,
2000-07-13 00:00:00,,,,22.375,23.25,22.375,,,,,,
2000-07-14 00:00:00,,,,23.031,23.156,22.344,,,,,,
2000-07-17 00:00:00,,,,22.563,22.594,21.875,,,,,,
2000-07-18 00:00:00,,,,21.938,22.063,21.719,,,,,,
2000-07-19 00:00:00,,,,21.688,22,21.25,,,,,,
2000-07-20 00:00:00,,,,20.938,21.438,20.781,,,,0,6,0
2000-07-21 00:00:00,,,,21.188,21.531,21.094,,,,0,6,0
2000-07-24 00:00:00,,,,21.406,21.438,21,,,,,,
2000-07-25 00:00:00,,,,21.25,21.5,20.875,,,,,,
2000-07-26 00:00:00,,,,21.156,21.219,20.719,,,,0,6,0
2000-07-27 00:00:00,,,,20.75,21.188,20.625,,,,,,
2000-07-28 00:00:00,,,,20.688,20.719,20.313,,,,,,
2000-07-31 00:00:00,,,,20.469,20.625,20.313,,,,,,
2000-08-01 00:00:00,,,,20.469,20.5,20.125,,,,,,
2000-08-02 00:00:00,,,,20.344,20.625,20.219,,,,,,
2000-08-03 00:00:00,,,,20.5,20.906,20.25,,,,,,
2000-08-04 00:00:00,,,,20.375,20.375,20.031,,,,,,
2000-08-07 00:00:00,,,,20.094,21.406,20.063,,,,,,
2000-08-08 00:00:00,,,,21,21.125,20.781,,,,,,
2000-08-09 00:00:00,,,,21,21.563,20.969,,,,,,
2000-08-10 00:00:00,,,,21.063,21.156,20.563,,,,,,
2000-08-11 00:00:00,,,,20.656,21.344,20.625,,,,,,
2000-08-14 00:00:00,,,,21.188,21.281,20.719,,,,,,
2000-08-15 00:00:00,,,,21.156,21.75,21.031,,,,,,
2000-08-16 00:00:00,,,,21.625,22.031,21.531,,,,,,
2000-08-17 00:00:00,,,,21.844,22.188,21.375,,,,,,
2000-08-18 00:00:00,,,,21.25,21.594,21.25,,,,,,
2000-08-21 00:00:00,,,,21.406,21.5,21.25,,,,,,
2000-08-22 00:00:00,,,,21.156,21.438,21.156,,,,,,
2000-08-23 00:00:00,,,,21.25,21.375,21.063,,,,,,
2000-08-24 00:00:00,,,,20.875,21.25,20.875,,,,,,
2000-08-25 00:00:00,,,,20.969,21.563,20.906,,,,,,
2000-08-28 00:00:00,,,,21.688,21.688,21.313,,,,,,
2000-08-29 00:00:00,,,,21.281,21.281,20.938,,,,,,
2000-08-30 00:00:00,,,,20.969,21,20.5,,,,,,
2000-08-31 00:00:00,,,,20.625,20.938,20.25,,,,,,
2000-09-01 00:00:00,,,,20.375,20.375,20.156,,,,,,
2000-09-05 00:00:00,,,,20.25,20.5,20.188,,,,,,
2000-09-06 00:00:00,,,,20.469,21.188,20.406,,,,,,
2000-09-07 00:00:00,,,,20.438,20.438,20.031,,,,,,
2000-09-08 00:00:00,,,,20.25,20.375,19.75,,,,,,
2000-09-11 00:00:00,,,,19.688,20.219,19.688,,,,,,
2000-09-12 00:00:00,,,,19.844,20.125,19.844,,,,,,
2000-09-13 00:00:00,,,,20,20.375,19,,,,,,
2000-09-14 00:00:00,,,,19.875,19.969,19.531,,,,0,6,0
2000-09-15 00:00:00,,,,19.594,19.594,19.063,,,,,,
2000-09-18 00:00:00,,,,19.063,19.094,18.438,,,,,,
2000-09-19 00:00:00,,,,18.781,18.781,18.219,,,,,,
2000-09-20 00:00:00,,,,18.438,18.5,18,,,,,,
2000-09-21 00:00:00,,,,18.25,18.688,18.188,,,,,,
2000-09-22 00:00:00,,,,18.438,19,18.344,,,,,,
2000-09-25 00:00:00,,,,18.75,18.75,18.281,,,,,,
2000-09-26 00:00:00,,,,18.25,18.438,18.063,,,,,,
2000-09-27 00:00:00,,,,18.063,18.906,18.063,,,,,,
2000-09-28 00:00:00,,,,18.844,19.438,18.625,,,,,,
2000-09-29 00:00:00,,,,19.25,20.25,19.188,,,,,,
2000-10-02 00:00:00,,,,19.75,19.844,19.406,,,,,,
2000-10-03 00:00:00,,,,19.656,20.625,19.469,,,,,,
2000-10-04 00:00:00,,,,19.781,21.063,19.781,,,,,,
2000-10-05 00:00:00,,,,20.875,20.875,20.156,,,,,,
2000-10-06 00:00:00,,,,20.125,21.031,20.125,,,,,,
2000-10-09 00:00:00,,,,20.313,21.031,20.281,,,,,,
2000-10-10 00:00:00,,,,20.375,20.781,20.094,,,,,,
2000-10-11 00:00:00,,,,19.969,20.594,19.813,,,,,,
2000-10-12 00:00:00,,,,19.75,19.781,19,,,,,,
2000-10-13 00:00:00,,,,19,19.125,18.656,,,,,,
2000-10-16 00:00:00,,,,19,19.344,18.844,,,,,,
2000-10-17 00:00:00,,,,19.5,19.844,18.75,,,,,,
2000-10-18 00:00:00,,,,18.844,19.125,18.781,,,,,,
2000-10-19 00:00:00,,,,19.063,19.313,18.656,,,,,,
2000-10-20 00:00:00,,,,19.188,19.313,18.719,,,,0,6,0
2000-10-23 00:00:00,,,,18.75,19.125,18.594,,,,,,
2000-10-24 00:00:00,,,,18.844,19.625,18.813,,,,,,
2000-10-25 00:00:00,,,,19.125,19.25,18.781,,,,,,
2000-10-26 00:00:00,,,,19.031,19.844,18.969,,,,,,
2000-10-27 00:00:00,,,,19.5,20,19.031,,,,,,
2000-10-30 00:00:00,,,,19.875,21.938,19.875,,,,,,
2000-10-31 00:00:00,,,,21.906,22.469,21.719,,,,,,
2000-11-01 00:00:00,,,,22.313,22.563,21.813,,,,,,
2000-11-02 00:00:00,,,,22.188,22.75,22,,,,,,
2000-11-03 00:00:00,,,,22.375,22.75,21.906,,,,,,
2000-11-06 00:00:00,,,,22.594,22.781,22.344,,,,0,6,1
2000-11-07 00:00:00,,,,22.531,22.844,22.375,,,,,,
2000-11-08 00:00:00,,,,22.469,23.063,22.063,,,,,,
2000-11-09 00:00:00,,,,22.719,22.75,21.906,,,,,,
2000-11-10 00:00:00,,,,22.375,22.625,21.938,,,,,,
2000-11-13 00:00:00,,,,22.25,22.688,22.063,,,,,,
2000-11-14 00:00:00,,,,22.094,22.531,21.969,,,,,,
2000-11-15 00:00:00,,,,22.563,23.063,22.5,,,,0,6,2
2000-11-16 00:00:00,,,,22.688,22.688,21.5,,,,,,
2000-11-17 00:00:00,,,,21.844,22.406,21.563,,,,,,
2000-11-20 00:00:00,,,,21.281,21.375,20.656,,,,0,6,2
2000-11-21 00:00:00,,,,20.969,21.188,20.688,,,,,,
2000-11-22 00:00:00,,,,20.813,20.813,20.406,,,,,,
2000-11-24 00:00:00,,,,20.813,21,20.781,,,,,,
2000-11-27 00:00:00,,,,20.781,20.844,20.219,,,,0,6,3
2000-11-28 00:00:00,,,,20.625,20.875,20.344,,,,,,
2000-11-29 00:00:00,,,,20.625,20.844,20.563,,,,,,
2000-11-30 00:00:00,,,,20.844,21,20.563,,,,,,
2000-12-01 00:00:00,,,,20.781,21.594,20.781,,,,,,
2000-12-04 00:00:00,,,,21.5,22.5,21.438,,,,,,
2000-12-05 00:00:00,,,,22.188,22.781,21.938,,,,,,
2000-12-06 00:00:00,,,,22.5,22.594,21.875,,,,,,
2000-12-07 00:00:00,,,,22.094,22.094,20.75,,,,,,
2000-12-08 00:00:00,,,,21.188,22,21.188,,,,,,
2000-12-11 00:00:00,,,,21.719,21.75,21.219,,,,,,
2000-12-12 00:00:00,,,,21.281,22.063,21.219,,,,,,
2000-12-13 00:00:00,,,,21.438,21.438,20.625,,,,0,6,3
2000-12-14 00:00:00,,,,20.719,21.281,20.156,,,,,,
2000-12-15 00:00:00,,,,21.219,21.281,20.656,,,,,,
2000-12-18 00:00:00,,,,20.844,21.5,20.813,,,,,,
2000-12-19 00:00:00,,,,21.125,22.063,20.844,,,,,,
2000-12-20 00:00:00,,,,22.125,22.188,21,,,,,,
2000-12-21 00:00:00,,,,21.25,21.813,21.188,,,,0,6,4
2000-12-22 00:00:00,,,,21.688,22.625,21.469,,,,,,
2000-12-26 00:00:00,,,,22.5,22.594,21.875,,,,,,
2000-12-27 00:00:00,,,,22.531,23.469,22.063,,,,,,
2000-12-28 00:00:00,,,,23.25,23.719,22.5,,,,0,6,4
2000-12-29 00:00:00,,,,23.719,23.719,23.063,,,,,,
2001-01-02 00:00:00,,,,23.375,23.438,22.625,,,,,,
2001-01-03 00:00:00,,,,22.719,22.906,22.125,,,,,,
2001-01-04 00:00:00,,,,23.688,24.438,23.313,,,,0,7,3
2001-01-05 00:00:00,,,,24.5,24.594,23.406,,,,,,
2001-01-08 00:00:00,,,,23.875,24.5,23.875,,,,,,
2001-01-09 00:00:00,,,,23.813,23.844,23.094,,,,0,7,4
2001-01-10 00:00:00,,,,22.875,23.219,22.219,,,,0,7,4
2001-01-11 00:00:00,,,,23.313,23.313,22.094,,,,,,
2001-01-12 00:00:00,,,,22.594,22.594,21.906,,,,0,7,4
2001-01-16 00:00:00,,,,22.188,23.031,21.875,,,,,,
2001-01-17 00:00:00,,,,22.938,23.063,22.219,,,,,,
2001-01-18 00:00:00,,,,22.594,22.656,22,,,,0,7,4
2001-01-19 00:00:00,,,,22.344,22.344,21.688,,,,0,7,4
2001-01-22 00:00:00,,,,21.969,22.406,21.5,,,,,,
2001-01-23 00:00:00,,,,22.188,22.75,22.188,,,,,,
2001-01-24 00:00:00,,,,22.125,22.625,22.094,,,,,,
2001-01-25 00:00:00,,,,22.5,23.094,22.438,,,,,,
2001-01-26 00:00:00,,,,23.125,23.156,22.406,,,,,,
2001-01-29 00:00:00,,,,22.475,22.92,22.345,,,,,,
2001-01-30 00:00:00,,,,22.85,22.975,22.34,,,,0,7,4
2001-01-31 00:00:00,,,,23.2,23.275,22.8,,,,,,
2001-02-01 00:00:00,,,,23.425,23.57,23.095,,,,,,
2001-02-02 00:00:00,,,,23.375,23.99,23.375,,,,,,
2001-02-05 00:00:00,,,,23.75,24.655,23.625,,,,,,
2001-02-06 00:00:00,,,,24.615,24.87,24.325,,,,,,
2001-02-07 00:00:00,,,,24.76,24.875,24.35,,,,,,
2001-02-08 00:00:00,,,,24.7,24.925,24.25,,,,,,
2001-02-09 00:00:00,,,,25,25.24,24.8,,,,,,
2001-02-12 00:00:00,,,,24.825,25.225,24.575,,,,0,6,5
2001-02-13 00:00:00,,,,25.075,25.55,25.035,,,,,,
2001-02-14 00:00:00,,,,25.2,25.49,25,,,,,,
2001-02-15 00:00:00,,,,24.925,25.5,24.925,,,,,,
2001-02-16 00:00:00,,,,25.425,25.43,24.55,,,,,,
2001-02-20 00:00:00,,,,24.8,25.285,24.8,,,,,,
2001-02-21 00:00:00,,,,24.875,25.025,24.6,,,,,,
2001-02-22 00:00:00,,,,24.825,25.25,24.6,,,,,,
2001-02-23 00:00:00,,,,25.385,25.385,24.32,,,,0,7,4
2001-02-26 00:00:00,,,,25.125,25.625,25.105,,,,,,
2001-02-27 00:00:00,,,,25.6,25.65,25.175,,,,,,
2001-02-28 00:00:00,,,,25.475,25.8,25.45,,,,,,
2001-03-01 00:00:00,,,,25.6,25.8,25.215,,,,,,
2001-03-02 00:00:00,,,,25.525,26.245,25.525,,,,,,
2001-03-05 00:00:00,,,,26.39,26.825,26.325,,,,,,
2001-03-06 00:00:00,,,,26.705,26.85,26.555,,,,,,
2001-03-07 00:00:00,,,,26.725,27.455,26.725,,,,,,
2001-03-08 00:00:00,,,,27.485,27.75,26.7,,,,0,7,4
2001-03-09 00:00:00,,,,27.665,27.75,27.12,,,,,,
2001-03-12 00:00:00,,,,27.45,27.5,27.125,,,,0,6,5
2001-03-13 00:00:00,,,,27.345,27.345,25.875,,,,,,
2001-03-14 00:00:00,,,,26.15,26.225,25.25,,,,,,
2001-03-15 00:00:00,,,,25.5,25.6,25.2,,,,0,5,5
2001-03-16 00:00:00,,,,24.95,25.6,24.95,,,,,,
2001-03-19 00:00:00,,,,24.825,25.835,24.825,,,,,,
2001-03-20 00:00:00,,,,25.3,26.25,24.75,,,,,,
2001-03-21 00:00:00,,,,25.05,25.05,24.3,,,,,,
2001-03-22 00:00:00,,,,24.375,24.375,22.8,,,,,,
2001-03-23 00:00:00,,,,23.175,23.37,22.76,,,,,,
2001-03-26 00:00:00,,,,23,23.6,22.9,,,,,,
2001-03-27 00:00:00,,,,23.75,23.75,23.005,,,,,,
2001-03-28 00:00:00,,,,23.35,23.515,22.65,,,,,,
2001-03-29 00:00:00,,,,23.49,23.695,22.96,,,,,,
2001-03-30 00:00:00,,,,23.315,23.315,22.785,,,,,,
2001-04-02 00:00:00,,,,23.545,24.14,23.355,,,,0,6,4
2001-04-03 00:00:00,,,,23.68,23.68,22.775,,,,,,
2001-04-04 00:00:00,,,,23.2,24.525,23.2,,,,,,
2001-04-05 00:00:00,,,,24.025,24.68,24.025,,,,0,6,4
2001-04-06 00:00:00,,,,24.525,24.525,23.65,,,,0,7,4
2001-04-09 00:00:00,,,,24.2,25.025,24.15,,,,,,
2001-04-10 00:00:00,,,,24.625,25.425,24.425,,,,,,
2001-04-11 00:00:00,,,,25.15,25.25,24.655,,,,,,
2001-04-12 00:00:00,,,,25,25.35,24.3,,,,,,
2001-04-16 00:00:00,,,,24.975,25.75,24.8,,,,,,
2001-04-17 00:00:00,,,,25.035,25.25,24.55,,,,,,
2001-04-18 00:00:00,,,,25,26.295,24.75,,,,0,7,4
2001-04-19 00:00:00,,,,26.375,26.38,25.675,,,,0,8,4
2001-04-20 00:00:00,,,,26.625,26.865,26.33,,,,0,9,3
2001-04-23 00:00:00,,,,26.35,26.975,26.125,,,,,,
2001-04-24 00:00:00,,,,26.4,27.045,26.355,,,,,,
2001-04-25 00:00:00,,,,26.125,26.7,26.125,,,,,,
2001-04-26 00:00:00,,,,26.7,27.45,26.55,,,,,,
2001-04-27 00:00:00,,,,26.75,27.41,26.75,,,,,,
2001-04-30 00:00:00,,,,26.855,26.95,26.38,,,,,,
2001-05-01 00:00:00,,,,26.575,26.8,26.43,,,,,,
2001-05-02 00:00:00,,,,26.525,27.1,26.41,,,,,,
2001-05-03 00:00:00,,,,27.04,27.07,26.625,,,,,,
2001-05-04 00:00:00,,,,26.75,27.65,26.63,,,,,,
2001-05-07 00:00:00,,,,27.545,27.975,27.325,,,,,,
2001-05-08 00:00:00,,,,27.425,27.63,27.275,,,,,,
2001-05-09 00:00:00,,,,27.2,27.765,27.185,,,,,,
2001-05-10 00:00:00,,,,27.5,28.05,27.45,,,,0,9,3
2001-05-11 00:00:00,,,,27.7,27.74,27.34,,,,0,9,3
2001-05-14 00:00:00,,,,27.85,28.19,27.645,,,,,,
2001-05-15 00:00:00,,,,28.2,28.39,28.06,,,,,,
2001-05-16 00:00:00,,,,28.355,29.61,28.35,,,,,,
2001-05-17 00:00:00,,,,29.525,29.875,29.35,,,,,,
2001-05-18 00:00:00,,,,29.555,29.555,29.055,,,,,,
2001-05-21 00:00:00,,,,29.5,29.85,29.25,,,,,,
2001-05-22 00:00:00,,,,29.65,29.65,29.275,,,,,,
2001-05-23 00:00:00,,,,29.5,29.61,29.005,,,,,,
2001-05-24 00:00:00,,,,28.25,28.6,27.45,,,,0,8,4
2001-05-25 00:00:00,,,,27.925,28.15,27.875,,,,,,
2001-05-29 00:00:00,,,,27.75,28.265,27.75,,,,,,
2001-05-30 00:00:00,,,,28.15,28.225,27.65,,,,,,
2001-05-31 00:00:00,,,,27.6,28.075,27.6,,,,,,
2001-06-01 00:00:00,,,,27.675,27.675,27,,,,,,
2001-06-04 00:00:00,,,,27,27.61,27,,,,0,7,5
2001-06-05 00:00:00,,,,27.55,27.9,26.89,,,,,,
2001-06-06 00:00:00,,,,27.55,27.96,27.525,,,,,,
2001-06-07 00:00:00,,,,27.35,28.015,27.35,,,,,,
2001-06-08 00:00:00,,,,27.65,27.7,27.3,,,,,,
2001-06-11 00:00:00,,,,27.375,27.375,26.835,,,,0,7,5
2001-06-12 00:00:00,,,,27.08,27.125,26.775,,,,,,
2001-06-13 00:00:00,,,,26.95,27.44,26.95,,,,,,
2001-06-14 00:00:00,,,,27.025,27.055,26.38,,,,,,
2001-06-15 00:00:00,,,,26.1,26.55,26.085,,,,,,
2001-06-18 00:00:00,,,,26.09,26.24,25.8,,,,,,
2001-06-19 00:00:00,,,,26.1,26.485,26.07,,,,,,
2001-06-20 00:00:00,,,,26.45,27.095,26.45,,,,,,
2001-06-21 00:00:00,,,,26.475,26.575,25.95,,,,,,
2001-06-22 00:00:00,,,,26.25,26.39,25.675,,,,0,7,5
2001-06-25 00:00:00,,,,25.875,25.925,25.425,,,,,,
2001-06-26 00:00:00,,,,25.55,26.115,25.25,,,,,,
2001-06-27 00:00:00,,,,25.825,26.21,25.76,,,,,,
2001-06-28 00:00:00,,,,26,26.29,25.895,,,,0,7,5
2001-06-29 00:00:00,,,,25.8,26.45,25.705,,,,,,
2001-07-02 00:00:00,,,,26.175,26.625,25.85,,,,0,7,5
2001-07-03 00:00:00,,,,26.25,26.35,25.9,,,,0,7,5
2001-07-05 00:00:00,,,,26.26,26.73,26.08,,,,,,
2001-07-06 00:00:00,,,,26.66,26.66,25.81,,,,,,
2001-07-09 00:00:00,,,,25.89,26.47,25.89,,,,,,
2001-07-10 00:00:00,,,,26.5,26.595,26.05,,,,,,
2001-07-11 00:00:00,,,,26.075,26.5,25.94,,,,,,
2001-07-12 00:00:00,,,,26.1,26.875,25.975,,,,,,
2001-07-13 00:00:00,,,,26.65,26.855,26.31,,,,,,
2001-07-16 00:00:00,,,,26.375,26.5,26.04,,,,,,
2001-07-17 00:00:00,,,,25.95,26.325,25.925,,,,,,
2001-07-18 00:00:00,,,,26.125,26.845,26,,,,,,
2001-07-19 00:00:00,,,,27.125,27.6,27.01,,,,0,7,5
2001-07-20 00:00:00,,,,27.325,27.45,26.945,,,,0,7,5
2001-07-23 00:00:00,,,,27.275,27.325,26.64,,,,,,
2001-07-24 00:00:00,,,,26.69,26.69,25.755,,,,,,
2001-07-25 00:00:00,,,,25.85,26.975,25.85,,,,,,
2001-07-26 00:00:00,,,,26.735,26.9,26.285,,,,,,
2001-07-27 00:00:00,,,,26.8,27.3,26.605,,,,,,
2001-07-30 00:00:00,,,,27.005,27.1,26.25,,,,,,
2001-07-31 00:00:00,,,,26.725,27.475,26.725,,,,,,
2001-08-01 00:00:00,,,,27.35,27.62,26.975,,,,,,
2001-08-02 00:00:00,,,,27.675,27.89,27.245,,,,,,
2001-08-03 00:00:00,,,,27.675,27.74,27.51,,,,,,
2001-08-06 00:00:00,,,,27.525,27.825,27.525,,,,,,
2001-08-07 00:00:00,,,,27.7,27.75,27.5,,,,,,
2001-08-08 00:00:00,,,,27.435,27.775,27.06,,,,,,
2001-08-09 00:00:00,,,,27.175,27.175,26.8,,,,,,
2001-08-10 00:00:00,,,,27.1,27.33,26.75,,,,,,
2001-08-13 00:00:00,,,,27.275,27.4,27,,,,,,
2001-08-14 00:00:00,,,,27.41,27.515,27.185,,,,,,
2001-08-15 00:00:00,,,,27.25,27.625,27.1,,,,,,
2001-08-16 00:00:00,,,,27.15,27.195,26.65,,,,,,
2001-08-17 00:00:00,,,,26.7,27.09,26.25,,,,,,
2001-08-20 00:00:00,,,,26.55,26.55,25.875,,,,,,
2001-08-21 00:00:00,,,,26.125,26.625,26.105,,,,,,
2001-08-22 00:00:00,,,,26.575,26.84,26.22,,,,0,7,5
2001-08-23 00:00:00,,,,26.725,26.925,26.49,,,,0,7,5
2001-08-24 00:00:00,,,,26.85,27.495,26.79,,,,,,
2001-08-27 00:00:00,,,,27.4,27.695,27.32,,,,,,
2001-08-28 00:00:00,,,,27.3,27.3,26.975,,,,,,
2001-08-29 00:00:00,,,,26.85,27.335,26.55,,,,,,
2001-08-30 00:00:00,,,,26.55,26.975,26.4,,,,,,
2001-08-31 00:00:00,,,,26.26,27.23,26.26,,,,,,
2001-09-04 00:00:00,,,,27.025,27.725,26.825,,,,0,8,4
2001-09-05 00:00:00,,,,27.51,27.65,27.25,,,,,,
2001-09-06 00:00:00,,,,27.31,27.495,27.1,,,,,,
2001-09-07 00:00:00,,,,27.075,27.1,25.845,,,,,,
2001-09-10 00:00:00,,,,25.935,26.05,25.315,,,,,,
2001-09-17 00:00:00,,,,23,23.915,22.55,,,,,,
2001-09-18 00:00:00,,,,22.625,23.3,22.2,,,,,,
2001-09-19 00:00:00,,,,22.75,22.875,21.495,,,,,,
2001-09-20 00:00:00,,,,22.1,22.1,20.955,,,,,,
2001-09-21 00:00:00,,,,19.5,20.625,19.495,,,,0,8,4
2001-09-24 00:00:00,,,,21.05,21.51,20.9,,,,,,
2001-09-25 00:00:00,,,,21.575,21.95,20.975,,,,0,8,4
2001-09-26 00:00:00,,,,21.545,21.675,21.165,,,,,,
2001-09-27 00:00:00,,,,21.225,21.545,21.1,,,,0,8,4
2001-09-28 00:00:00,,,,21.65,22.875,21.635,,,,,,
2001-10-01 00:00:00,,,,22.82,22.875,22.075,,,,,,
2001-10-02 00:00:00,,,,22.65,23.125,22.61,,,,,,
2001-10-03 00:00:00,,,,23.065,23.745,22.825,,,,,,
2001-10-04 00:00:00,,,,23.645,23.675,23.275,,,,0,8,4
2001-10-05 00:00:00,,,,23.6,24.2,23.35,,,,,,
2001-10-08 00:00:00,,,,23.5,23.52,23.05,,,,,,
2001-10-09 00:00:00,,,,22.85,23.74,22.85,,,,,,
2001-10-10 00:00:00,,,,23.125,24.28,23.075,,,,0,7,5
2001-10-11 00:00:00,,,,24.2,25.5,24.075,,,,,,
2001-10-12 00:00:00,,,,25,25.2,24.77,,,,,,
2001-10-15 00:00:00,,,,24.695,24.775,24.405,,,,0,7,5
2001-10-16 00:00:00,,,,24.9,25.15,24.38,,,,,,
2001-10-17 00:00:00,,,,25.125,25.45,24.285,,,,,,
2001-10-18 00:00:00,,,,24.51,24.75,24.17,,,,,,
2001-10-19 00:00:00,,,,24.625,24.675,23.975,,,,0,7,5
2001-10-22 00:00:00,,,,24.1,25.245,24.05,,,,0,7,5
2001-10-23 00:00:00,,,,25.095,25.35,24.725,,,,0,7,5
2001-10-24 00:00:00,,,,25,25.255,24.625,,,,,,
2001-10-25 00:00:00,,,,24.925,25.425,24.55,,,,,,
2001-10-26 00:00:00,,,,25.325,25.675,25.045,,,,0,6,6
2001-10-29 00:00:00,,,,25.5,25.51,24.75,,,,,,
2001-10-30 00:00:00,,,,24.575,24.7,24.245,,,,,,
2001-10-31 00:00:00,,,,24.425,24.625,24.15,,,,,,
2001-11-01 00:00:00,,,,24.305,25.2,24.05,,,,,,
2001-11-02 00:00:00,,,,25.1,26.165,24.95,,,,,,
2001-11-05 00:00:00,,,,25.78,26.15,25.325,,,,,,
2001-11-06 00:00:00,,,,25.775,26.4,25.55,,,,0,5,7
2001-11-07 00:00:00,,,,26.06,26.19,25.86,,,,,,
2001-11-08 00:00:00,,,,26.11,26.165,25.845,,,,,,
2001-11-09 00:00:00,,,,25.85,26.225,25.625,,,,,,
2001-11-12 00:00:00,,,,25.75,25.8,25.375,,,,,,
2001-11-13 00:00:00,,,,25.7,26.45,25.7,,,,,,
2001-11-14 00:00:00,,,,26.625,27.02,26.55,,,,,,
2001-11-15 00:00:00,,,,26.95,27.32,26.775,,,,,,
2001-11-16 00:00:00,,,,27.08,27.2,26.9,,,,,,
2001-11-19 00:00:00,,,,27.025,27.495,27.025,,,,,,
2001-11-20 00:00:00,,,,27.225,27.395,27,,,,,,
2001-11-21 00:00:00,,,,27.04,27.225,26.88,,,,,,
2001-11-23 00:00:00,,,,26.925,27.425,26.85,,,,,,
2001-11-26 00:00:00,,,,27.25,27.4,26.88,,,,,,
2001-11-27 00:00:00,,,,27.15,27.3,26.925,,,,0,5,7
2001-11-28 00:00:00,,,,26.95,26.95,26.55,,,,,,
2001-11-29 00:00:00,,,,26.6,26.87,26.335,,,,,,
2001-11-30 00:00:00,,,,26.75,27.2,26.7,,,,,,
2001-12-03 00:00:00,,,,26.7,26.725,26.3,,,,0,5,7
2001-12-04 00:00:00,,,,26.5,26.85,26.2,,,,,,
2001-12-05 00:00:00,,,,26.84,27.675,26.84,,,,,,
2001-12-06 00:00:00,,,,27.425,27.78,27.175,,,,,,
2001-12-07 00:00:00,,,,27.035,27.335,26.55,,,,0,4,8
2001-12-10 00:00:00,,,,26.62,26.62,25.64,,,,,,
2001-12-11 00:00:00,,,,25.875,26.39,25.78,,,,,,
2001-12-12 00:00:00,,,,26.25,26.25,25.625,,,,,,
2001-12-13 00:00:00,,,,25.325,25.55,24.975,,,,,,
2001-12-14 00:00:00,,,,25.15,25.5,24.91,,,,,,
2001-12-17 00:00:00,,,,25.15,25.4,25.1,,,,,,
2001-12-18 00:00:00,,,,25.625,26.075,25.575,,,,0,4,8
2001-12-19 00:00:00,,,,25.995,26.1,25.6,,,,,,
2001-12-20 00:00:00,,,,25.69,26.25,25.69,,,,,,
2001-12-21 00:00:00,,,,26,26,25.28,,,,,,
2001-12-24 00:00:00,,,,25.3,25.65,25.3,,,,,,
2001-12-26 00:00:00,,,,25.375,25.55,25.15,,,,,,
2001-12-27 00:00:00,,,,25.5,25.565,25.245,,,,,,
2001-12-28 00:00:00,,,,25.45,25.65,25.325,,,,,,
2001-12-31 00:00:00,,,,25.6,26.275,25.55,,,,,,
2002-01-02 00:00:00,,,,25.75,25.755,25.385,,,,,,
2002-01-03 00:00:00,,,,25.475,26.2,25.37,,,,,,
2002-01-04 00:00:00,,,,26.12,26.97,26.1,,,,,,
2002-01-07 00:00:00,,,,26.88,27.135,26.75,,,,,,
2002-01-08 00:00:00,,,,26.775,26.875,26.45,,,,,,
2002-01-09 00:00:00,,,,26.6,26.79,26.3,,,,,,
2002-01-10 00:00:00,,,,26.29,26.29,25.28,,,,,,
2002-01-11 00:00:00,,,,25.495,25.495,24.975,,,,,,
2002-01-14 00:00:00,,,,25.15,25.175,24.13,,,,,,
2002-01-15 00:00:00,,,,24.425,24.65,24,,,,,,
2002-01-16 00:00:00,,,,23.75,24,23.25,,,,0,4,8
2002-01-17 00:00:00,,,,21.875,22.865,21.475,,,,0,4,8
2002-01-18 00:00:00,,,,22.5,22.665,22.4,,,,0,4,8
2002-01-22 00:00:00,,,,22.5,22.9,22.46,,,,,,
2002-01-23 00:00:00,,,,22.56,23.25,22.55,,,,,,
2002-01-24 00:00:00,,,,23.24,23.625,23.175,,,,,,
2002-01-25 00:00:00,,,,23.35,24.1,23.25,,,,0,4,7
2002-01-28 00:00:00,,,,23.925,24.03,23.65,,,,,,
2002-01-29 00:00:00,,,,23.55,23.8,23.145,,,,,,
2002-01-30 00:00:00,,,,23.275,23.705,23.12,,,,,,
2002-01-31 00:00:00,,,,23.655,24.3,23.5,,,,,,
2002-02-01 00:00:00,,,,24.17,24.505,24.01,,,,,,
2002-02-04 00:00:00,,,,24,24.095,23.525,,,,,,
2002-02-05 00:00:00,,,,23.7,23.9,23.15,,,,,,
2002-02-06 00:00:00,,,,23.215,23.55,22.95,,,,,,
2002-02-07 00:00:00,,,,23.355,23.505,22.85,,,,,,
2002-02-08 00:00:00,,,,23.325,23.625,23.095,,,,,,
2002-02-11 00:00:00,,,,23.725,24.6,23.725,,,,0,5,6
2002-02-12 00:00:00,,,,24.56,24.56,24.105,,,,,,
2002-02-13 00:00:00,,,,24.4,24.74,24.25,,,,,,
2002-02-14 00:00:00,,,,24.29,24.525,24.025,,,,,,
2002-02-15 00:00:00,,,,24.15,25,24.15,,,,,,
2002-02-19 00:00:00,,,,24.475,24.63,23.8,,,,,,
2002-02-20 00:00:00,,,,24.425,24.63,24.125,,,,0,6,5
2002-02-21 00:00:00,,,,24.575,25.5,24.575,,,,,,
2002-02-22 00:00:00,,,,24.725,25.4,24.695,,,,,,
2002-02-25 00:00:00,,,,25.225,25.415,25.02,,,,,,
2002-02-26 00:00:00,,,,25.4,25.765,25.18,,,,,,
2002-02-27 00:00:00,,,,25.645,26.135,25.5,,,,,,
2002-02-28 00:00:00,,,,25.6,26.35,25.6,,,,0,7,5
2002-03-01 00:00:00,,,,25.785,26.64,25.685,,,,,,
2002-03-04 00:00:00,,,,26.5,27.25,26.45,,,,,,
2002-03-05 00:00:00,,,,26.775,26.875,26.17,,,,,,
2002-03-06 00:00:00,,,,26.08,26.775,26.08,,,,,,
2002-03-07 00:00:00,,,,26.775,27.08,26.39,,,,,,
2002-03-08 00:00:00,,,,27.375,27.4,27.095,,,,,,
2002-03-11 00:00:00,,,,27.1,27.265,26.965,,,,0,7,5
2002-03-12 00:00:00,,,,27.085,27.355,26.875,,,,,,
2002-03-13 00:00:00,,,,27.25,27.26,26.89,,,,0,7,4
2002-03-14 00:00:00,,,,26.825,27.54,26.825,,,,,,
2002-03-15 00:00:00,,,,27.425,27.7,27.32,,,,,,
2002-03-18 00:00:00,,,,27.51,27.905,27.51,,,,0,7,4
2002-03-19 00:00:00,,,,27.815,28,27.695,,,,0,7,4
2002-03-20 00:00:00,,,,27.85,28.67,27.85,,,,,,
2002-03-21 00:00:00,,,,28.2,28.22,27.2,,,,,,
2002-03-22 00:00:00,,,,27.36,27.41,26.875,,,,,,
2002-03-25 00:00:00,,,,26.8,26.87,26.3,,,,,,
2002-03-26 00:00:00,,,,26.45,27.225,26.45,,,,,,
2002-03-27 00:00:00,,,,27.075,27.85,27.07,,,,,,
2002-03-28 00:00:00,,,,27.7,27.85,27.455,,,,,,
2002-04-01 00:00:00,,,,27.455,27.455,26.76,,,,,,
2002-04-02 00:00:00,,,,27.25,27.305,26.935,,,,,,
2002-04-03 00:00:00,,,,27.425,27.6,26.9,,,,,,
2002-04-04 00:00:00,,,,26.35,26.435,25.915,,,,0,6,5
2002-04-05 00:00:00,,,,26.575,27.12,26.555,,,,,,
2002-04-08 00:00:00,,,,26.625,27.015,26.42,,,,,,
2002-04-09 00:00:00,,,,26.945,27.135,26.725,,,,,,
2002-04-10 00:00:00,,,,27.08,27.56,26.97,,,,,,
2002-04-11 00:00:00,,,,27.465,27.65,27.135,,,,,,
2002-04-12 00:00:00,,,,27.25,27.365,27.005,,,,,,
2002-04-15 00:00:00,,,,27.22,27.25,26.905,,,,,,
2002-04-16 00:00:00,,,,27,27.695,27,,,,,,
2002-04-17 00:00:00,,,,27.575,27.725,27.45,,,,,,
2002-04-18 00:00:00,,,,27.45,27.5,26.2,,,,,,
2002-04-19 00:00:00,,,,26.85,27.08,26.64,,,,0,6,5
2002-04-22 00:00:00,,,,26.875,26.875,26.325,,,,,,
2002-04-23 00:00:00,,,,26.38,26.47,26.05,,,,,,
2002-04-24 00:00:00,,,,26.175,26.575,26.045,,,,,,
2002-04-25 00:00:00,,,,26.1,26.1,25.6,,,,,,
2002-04-26 00:00:00,,,,26,26.325,25.985,,,,0,7,5
2002-04-29 00:00:00,,,,26.055,26.125,25.6,,,,0,7,5
2002-04-30 00:00:00,,,,25.675,26.325,25.65,,,,,,
2002-05-01 00:00:00,,,,26.1,26.35,25.575,,,,,,
2002-05-02 00:00:00,,,,26.15,26.885,26.15,,,,,,
2002-05-03 00:00:00,,,,26.85,26.98,26.55,,,,,,
2002-05-06 00:00:00,,,,26.925,27.21,26.875,,,,,,
2002-05-07 00:00:00,,,,27.15,27.825,27.11,,,,,,
2002-05-08 00:00:00,,,,27.75,28.08,27.625,,,,0,6,5
2002-05-09 00:00:00,,,,27.725,28.145,27.725,,,,,,
2002-05-10 00:00:00,,,,27.835,27.915,27.65,,,,,,
2002-05-13 00:00:00,,,,27.73,27.975,27.43,,,,,,
2002-05-14 00:00:00,,,,28.15,28.58,28.1,,,,,,
2002-05-15 00:00:00,,,,29,29.49,28.81,,,,0,6,5
2002-05-16 00:00:00,,,,28.86,29.1,28.675,,,,,,
2002-05-17 00:00:00,,,,28.79,28.94,28.56,,,,,,
2002-05-20 00:00:00,,,,28.85,28.875,28.45,,,,,,
2002-05-21 00:00:00,,,,28.875,29.1,28.615,,,,,,
2002-05-22 00:00:00,,,,28.45,28.82,28.45,,,,,,
2002-05-23 00:00:00,,,,28.8,29.295,28.605,,,,,,
2002-05-24 00:00:00,,,,29.17,29.475,28.875,,,,,,
2002-05-28 00:00:00,,,,29.05,29.1,28.6,,,,,,
2002-05-29 00:00:00,,,,28.575,28.675,28.255,,,,0,7,5
2002-05-30 00:00:00,,,,28.35,28.525,27.975,,,,,,
2002-05-31 00:00:00,,,,28.075,28.71,27.98,,,,,,
2002-06-03 00:00:00,,,,28.8,28.8,27.725,,,,,,
2002-06-04 00:00:00,,,,27.775,27.96,27.3,,,,0,7,5
2002-06-05 00:00:00,,,,27.625,28.275,27.6,,,,0,7,5
2002-06-06 00:00:00,,,,28.175,28.345,27.75,,,,,,
2002-06-07 00:00:00,,,,27.76,28.22,27.635,,,,,,
2002-06-10 00:00:00,,,,28.1,28.72,28.065,,,,,,
2002-06-11 00:00:00,,,,28.925,29.095,28.125,,,,,,
2002-06-12 00:00:00,,,,28.175,28.85,28.025,,,,,,
2002-06-13 00:00:00,,,,28.9,28.98,28.505,,,,,,
2002-06-14 00:00:00,,,,28.555,28.6,27.825,,,,,,
2002-06-17 00:00:00,,,,28.59,29.4,28.59,,,,,,
2002-06-18 00:00:00,,,,29.4,29.495,29.025,,,,,,
2002-06-19 00:00:00,,,,29.4,29.79,29.225,,,,,,
2002-06-20 00:00:00,,,,29.625,30.05,29.625,,,,,,
2002-06-21 00:00:00,,,,29.945,29.97,29.55,,,,,,
2002-06-24 00:00:00,,,,29.8,29.97,29.465,,,,,,
2002-06-25 00:00:00,,,,29.995,30.295,29.95,,,,,,
2002-06-26 00:00:00,,,,29.65,30,29.34,,,,,,
2002-06-27 00:00:00,,,,29.85,30.14,29.505,,,,,,
2002-06-28 00:00:00,,,,29.57,30.95,29.57,,,,0,7,5
2002-07-01 00:00:00,,,,30.55,30.695,30.05,,,,0,7,5
2002-07-02 00:00:00,,,,30.4,30.51,30.15,,,,,,
2002-07-03 00:00:00,,,,30.375,30.74,29.26,,,,,,
2002-07-05 00:00:00,,,,29.96,30.99,29.87,,,,,,
2002-07-08 00:00:00,,,,30.85,31.35,30.85,,,,,,
2002-07-09 00:00:00,,,,31.15,31.43,30.325,,,,,,
2002-07-10 00:00:00,,,,30.45,31,29.95,,,,0,7,5
2002-07-11 00:00:00,,,,30,30.37,29.26,,,,,,
2002-07-12 00:00:00,,,,29.305,29.65,28.92,,,,0,7,5
2002-07-15 00:00:00,,,,29.015,29.015,27.325,,,,0,6,6
2002-07-16 00:00:00,,,,28.075,28.41,27.035,,,,,,
2002-07-17 00:00:00,,,,28.49,28.75,27.915,,,,,,
2002-07-18 00:00:00,,,,28.1,28.65,27.8,,,,0,6,6
2002-07-19 00:00:00,,,,27.35,27.35,25.785,,,,0,5,7
2002-07-22 00:00:00,,,,25.8,25.9,24.375,,,,,,
2002-07-23 00:00:00,,,,24.56,25.345,24.25,,,,,,
2002-07-24 00:00:00,,,,24.3,26.7,24.18,,,,,,
2002-07-25 00:00:00,,,,26.56,28.375,26.275,,,,,,
2002-07-26 00:00:00,,,,28.2,28.33,27.5,,,,,,
2002-07-29 00:00:00,,,,28.08,29.75,28.08,,,,,,
2002-07-30 00:00:00,,,,29.55,29.595,27.97,,,,,,
2002-07-31 00:00:00,,,,28.1,28.7,27.65,,,,,,
2002-08-01 00:00:00,,,,28.7,29.195,28.075,,,,,,
2002-08-02 00:00:00,,,,28.675,28.675,26.64,,,,,,
2002-08-05 00:00:00,,,,27.365,27.8,26.9,,,,0,5,7
2002-08-06 00:00:00,,,,27.495,28.665,27.45,,,,,,
2002-08-07 00:00:00,,,,28.55,28.955,27.66,,,,,,
2002-08-08 00:00:00,,,,28.585,29.125,28.3,,,,,,
2002-08-09 00:00:00,,,,28.9,29.2,28.475,,,,,,
2002-08-12 00:00:00,,,,28.4,28.975,28.075,,,,,,
2002-08-13 00:00:00,,,,28.5,29.08,28.275,,,,,,
2002-08-14 00:00:00,,,,28.37,28.655,27.025,,,,,,
2002-08-15 00:00:00,,,,28.675,28.925,28.08,,,,,,
2002-08-16 00:00:00,,,,28.645,28.82,27.98,,,,,,
2002-08-19 00:00:00,,,,28.49,29.3,28.345,,,,,,
2002-08-20 00:00:00,,,,29,29.005,28.375,,,,,,
2002-08-21 00:00:00,,,,28.675,28.825,28.175,,,,,,
2002-08-22 00:00:00,,,,28.565,29.18,28.495,,,,,,
2002-08-23 00:00:00,,,,29,29,28.25,,,,0,5,7
2002-08-26 00:00:00,,,,28.375,28.56,27.855,,,,,,
2002-08-27 00:00:00,,,,28.625,28.935,28.275,,,,,,
2002-08-28 00:00:00,,,,28.35,28.35,27.575,,,,,,
2002-08-29 00:00:00,,,,27.645,28.31,27.345,,,,,,
2002-08-30 00:00:00,,,,28.025,28.605,27.88,,,,,,
2002-09-03 00:00:00,,,,28.01,28.085,27.24,,,,,,
2002-09-04 00:00:00,,,,27.505,27.865,27.375,,,,,,
2002-09-05 00:00:00,,,,27.25,27.38,26.765,,,,0,5,8
2002-09-06 00:00:00,,,,27.1,27.5,26.93,,,,0,5,8
2002-09-09 00:00:00,,,,26.625,27.3,26.615,,,,0,5,8
2002-09-10 00:00:00,,,,27.2,27.325,26.525,,,,,,
2002-09-11 00:00:00,,,,27.04,27.125,26.77,,,,,,
2002-09-12 00:00:00,,,,26.4,26.45,25.85,,,,0,5,8
2002-09-13 00:00:00,,,,25.7,25.735,25.18,,,,,,
2002-09-16 00:00:00,,,,25.515,25.78,25.29,,,,,,
2002-09-17 00:00:00,,,,25.85,25.975,25.225,,,,,,
2002-09-18 00:00:00,,,,25.1,25.4,24.775,,,,,,
2002-09-19 00:00:00,,,,24.875,25.325,24.675,,,,,,
2002-09-20 00:00:00,,,,24.91,25.225,24.89,,,,,,
2002-09-23 00:00:00,,,,25.025,25.095,24.45,,,,,,
2002-09-24 00:00:00,,,,24.15,24.355,23.52,,,,0,5,8
2002-09-25 00:00:00,,,,23.735,24.075,23.5,,,,,,
2002-09-26 00:00:00,,,,23.875,24,23.525,,,,,,
2002-09-27 00:00:00,,,,23.65,24.025,22.865,,,,,,
2002-09-30 00:00:00,,,,22.6,22.6,22.005,,,,,,
2002-10-01 00:00:00,,,,22.625,23.77,22.5,,,,,,
2002-10-02 00:00:00,,,,23.175,23.25,22.39,,,,,,
2002-10-03 00:00:00,,,,22.575,23.035,22.4,,,,,,
2002-10-04 00:00:00,,,,22.625,22.84,21.375,,,,,,
2002-10-07 00:00:00,,,,21.775,22.11,21.3,,,,,,
2002-10-08 00:00:00,,,,21.65,22.28,20.89,,,,,,
2002-10-09 00:00:00,,,,21.7,21.8,20.695,,,,,,
2002-10-10 00:00:00,,,,20.9,22.95,20.85,,,,0,5,8
2002-10-11 00:00:00,,,,23.275,24.475,23.155,,,,,,
2002-10-14 00:00:00,,,,23.875,23.875,23.375,,,,0,5,8
2002-10-15 00:00:00,,,,24.125,25.225,24,,,,,,
2002-10-16 00:00:00,,,,25.225,25.4,23.77,,,,0,6,7
2002-10-17 00:00:00,,,,24.5,25.845,24.5,,,,0,6,7
2002-10-18 00:00:00,,,,25.09,25.25,24.45,,,,,,
2002-10-21 00:00:00,,,,24.74,26.425,24.385,,,,,,
2002-10-22 00:00:00,,,,25.875,26.075,25.165,,,,,,
2002-10-23 00:00:00,,,,25.025,25.615,24.5,,,,,,
2002-10-24 00:00:00,,,,25.075,25.275,24.175,,,,,,
2002-10-25 00:00:00,,,,24,24.6,23.625,,,,,,
2002-10-28 00:00:00,,,,24.675,24.675,23.805,,,,,,
2002-10-29 00:00:00,,,,23.925,23.925,22.8,,,,,,
2002-10-30 00:00:00,,,,23.2,23.445,22.825,,,,,,
2002-10-31 00:00:00,,,,23.375,23.71,23.155,,,,,,
2002-11-01 00:00:00,,,,23.475,24.59,23.375,,,,,,
2002-11-04 00:00:00,,,,24.7,25,24.25,,,,0,6,7
2002-11-05 00:00:00,,,,24.345,24.725,24.175,,,,,,
2002-11-06 00:00:00,,,,24.5,25.1,24.29,,,,,,
2002-11-07 00:00:00,,,,24.87,24.89,24.04,,,,0,6,7
2002-11-08 00:00:00,,,,24.15,24.57,23.44,,,,,,
2002-11-11 00:00:00,,,,23.625,23.705,22.92,,,,,,
2002-11-12 00:00:00,,,,23.095,24.085,22.95,,,,,,
2002-11-13 00:00:00,,,,23.85,24.285,23.37,,,,,,
2002-11-14 00:00:00,,,,23.925,24.45,23.82,,,,,,
2002-11-15 00:00:00,,,,24.25,24.66,24.15,,,,,,
2002-11-18 00:00:00,,,,24.6,24.645,23.905,,,,,,
2002-11-19 00:00:00,,,,23.92,24.325,23.55,,,,,,
2002-11-20 00:00:00,,,,24.095,24.295,23.675,,,,,,
2002-11-21 00:00:00,,,,22.5,24.025,22.35,,,,0,5,8
2002-11-22 00:00:00,,,,24.005,24.31,23.325,,,,0,5,8
2002-11-25 00:00:00,,,,23.325,23.845,23.095,,,,,,
2002-11-26 00:00:00,,,,23.53,23.625,23.17,,,,,,
2002-11-27 00:00:00,,,,23.6,24.555,23.475,,,,,,
2002-11-28 00:00:00,,,,,,,,,,0,5,7
2002-11-29 00:00:00,,,,24.7,25.09,24.65,,,,,,
2002-12-02 00:00:00,,,,25.285,25.325,24.115,,,,0,5,7
2002-12-03 00:00:00,,,,24.37,24.45,23.95,,,,0,4,7
2002-12-04 00:00:00,,,,24.08,24.19,23.5,,,,,,
2002-12-05 00:00:00,,,,24,24,23.51,,,,,,
2002-12-06 00:00:00,,,,23.3,24.2,23.3,,,,,,
2002-12-09 00:00:00,,,,23.75,24.075,23.605,,,,0,4,7
2002-12-10 00:00:00,,,,23.75,24.025,23.5,,,,,,
2002-12-11 00:00:00,,,,23.9,24.425,23.67,,,,,,
2002-12-12 00:00:00,,,,24.075,24.43,23.895,,,,,,
2002-12-13 00:00:00,,,,24.365,24.5,24.155,,,,,,
2002-12-16 00:00:00,,,,24.25,25.3,24.25,,,,,,
2002-12-17 00:00:00,,,,25.235,25.44,25.105,,,,,,
2002-12-18 00:00:00,,,,24.865,24.995,24.55,,,,,,
2002-12-19 00:00:00,,,,24.625,24.95,24.395,,,,0,4,6
2002-12-20 00:00:00,,,,24.65,25.11,24.65,,,,,,
2002-12-23 00:00:00,,,,25.025,25.13,24.665,,,,,,
2002-12-24 00:00:00,,,,24.775,24.95,24.75,,,,,,
2002-12-26 00:00:00,,,,24.795,25.25,24.675,,,,,,
2002-12-27 00:00:00,,,,24.85,25.13,24.725,,,,,,
2002-12-30 00:00:00,,,,24.775,25.175,24.68,,,,,,
2002-12-31 00:00:00,,,,25.15,25.25,24.615,,,,,,
2003-01-02 00:00:00,,,,25.2,25.865,25.05,,,,,,
2003-01-03 00:00:00,,,,25.86,25.895,25.625,,,,,,
2003-01-06 00:00:00,,,,25.85,26.335,25.85,,,,,,
2003-01-07 00:00:00,,,,26.25,26.295,25.96,,,,,,
2003-01-08 00:00:00,,,,25.985,26.04,25.525,,,,0,4,6
2003-01-09 00:00:00,,,,25.675,26.13,25.615,,,,,,
2003-01-10 00:00:00,,,,26,26.525,25.95,,,,,,
2003-01-13 00:00:00,,,,26.625,26.625,26.05,,,,0,4,7
2003-01-14 00:00:00,,,,26.025,26.315,26.025,,,,0,4,8
2003-01-15 00:00:00,,,,26.175,26.175,25.7,,,,0,4,8
2003-01-16 00:00:00,,,,25.925,26.625,25.925,,,,,,
2003-01-17 00:00:00,,,,26.25,26.425,26,,,,0,4,8
2003-01-21 00:00:00,,,,26.185,26.22,25.455,,,,,,
2003-01-22 00:00:00,,,,25.425,25.6,25.055,,,,,,
2003-01-23 00:00:00,,,,25.15,25.55,25.065,,,,,,
2003-01-24 00:00:00,,,,25.25,25.325,24.76,,,,,,
2003-01-27 00:00:00,,,,24.6,24.795,23.965,,,,,,
2003-01-28 00:00:00,,,,24.085,24.47,24.05,,,,,,
2003-01-29 00:00:00,,,,24.075,24.645,23.82,,,,,,
2003-01-30 00:00:00,,,,24.4,24.4,23.67,,,,,,
2003-01-31 00:00:00,,,,23.375,24.655,23.37,,,,,,
2003-02-03 00:00:00,,,,24.4,24.735,24.35,,,,0,4,8
2003-02-04 00:00:00,,,,24.425,24.435,24.1,,,,,,
2003-02-05 00:00:00,,,,24.5,24.895,24.305,,,,,,
2003-02-06 00:00:00,,,,24.325,24.44,24.02,,,,,,
2003-02-07 00:00:00,,,,24.25,24.325,23.76,,,,,,
2003-02-10 00:00:00,,,,23.85,24.1,23.6,,,,,,
2003-02-11 00:00:00,,,,24.04,24.17,23.53,,,,0,4,8
2003-02-12 00:00:00,,,,23.69,23.93,23.49,,,,,,
2003-02-13 00:00:00,,,,23.29,23.575,23.23,,,,,,
2003-02-14 00:00:00,,,,23.525,23.825,23.185,,,,,,
2003-02-18 00:00:00,,,,23.75,24.435,23.745,,,,,,
2003-02-19 00:00:00,,,,24.215,24.275,23.79,,,,,,
2003-02-20 00:00:00,,,,23.945,24,23.51,,,,,,
2003-02-21 00:00:00,,,,23.575,24.04,23.41,,,,0,4,8
2003-02-24 00:00:00,,,,23.94,23.94,23.365,,,,,,
2003-02-25 00:00:00,,,,23.175,23.225,22.58,,,,0,4,8
2003-02-26 00:00:00,,,,23.19,23.6,23.185,,,,0,4,8
2003-02-27 00:00:00,,,,23.305,23.615,23.175,,,,,,
2003-02-28 00:00:00,,,,23.45,23.725,23.115,,,,0,4,8
2003-03-03 00:00:00,,,,23.325,23.625,23.075,,,,0,5,7
2003-03-04 00:00:00,,,,23,23.005,22.29,,,,0,5,7
2003-03-05 00:00:00,,,,22.075,22.32,21.76,,,,0,5,7
2003-03-06 00:00:00,,,,22.175,22.175,21.645,,,,,,
2003-03-07 00:00:00,,,,21.4,21.93,21.4,,,,,,
2003-03-10 00:00:00,,,,21.825,21.9,21.385,,,,,,
2003-03-11 00:00:00,,,,21.435,21.645,21.305,,,,,,
2003-03-12 00:00:00,,,,21.825,21.825,21.305,,,,0,5,7
2003-03-13 00:00:00,,,,21.95,22.47,21.92,,,,,,
2003-03-14 00:00:00,,,,22.47,22.775,22.25,,,,,,
2003-03-17 00:00:00,,,,22.495,23.265,22.24,,,,,,
2003-03-18 00:00:00,,,,23.325,23.85,23.31,,,,,,
2003-03-19 00:00:00,,,,23.85,23.85,23.43,,,,,,
2003-03-20 00:00:00,,,,23.595,23.83,23.265,,,,,,
2003-03-21 00:00:00,,,,24.325,25.025,24.05,,,,,,
2003-03-24 00:00:00,,,,24.575,24.575,23.695,,,,,,
2003-03-25 00:00:00,,,,23.84,24.09,23.655,,,,,,
2003-03-26 00:00:00,,,,23.86,23.925,23.425,,,,,,
2003-03-27 00:00:00,,,,23.5,23.525,23.075,,,,,,
2003-03-28 00:00:00,,,,23.225,23.325,23.04,,,,,,
2003-03-31 00:00:00,,,,23.05,23.05,22.51,,,,,,
2003-04-01 00:00:00,,,,22.675,23.35,22.425,,,,,,
2003-04-02 00:00:00,,,,23.5,23.925,23.465,,,,,,
2003-04-03 00:00:00,,,,23.75,23.75,23.105,,,,,,
2003-04-04 00:00:00,,,,23.25,23.305,22.835,,,,,,
2003-04-07 00:00:00,,,,23.5,23.75,23.35,,,,,,
2003-04-08 00:00:00,,,,23.375,23.375,22.8,,,,,,
2003-04-09 00:00:00,,,,22.975,23.05,22.45,,,,,,
2003-04-10 00:00:00,,,,22.515,22.96,22.47,,,,,,
2003-04-11 00:00:00,,,,23.125,23.425,22.81,,,,,,
2003-04-14 00:00:00,,,,22.8,23.03,22.7,,,,0,5,7
2003-04-15 00:00:00,,,,22.885,23.175,22.55,,,,,,
2003-04-16 00:00:00,,,,23.25,23.3,22.705,,,,,,
2003-04-17 00:00:00,,,,22.75,23.095,22.71,,,,0,5,8
2003-04-21 00:00:00,,,,23.165,23.345,22.89,,,,0,5,8
2003-04-22 00:00:00,,,,22.975,23.715,22.84,,,,0,5,8
2003-04-23 00:00:00,,,,23.575,24.05,23.45,,,,,,
2003-04-24 00:00:00,,,,23.76,23.975,23.715,,,,,,
2003-04-25 00:00:00,,,,23.71,23.725,22.925,,,,,,
2003-04-28 00:00:00,,,,23.2,23.885,23.18,,,,,,
2003-04-29 00:00:00,,,,23.925,24.1,23.7,,,,,,
2003-04-30 00:00:00,,,,23.96,24.46,23.725,,,,,,
2003-05-01 00:00:00,,,,24.19,24.26,23.745,,,,,,
2003-05-02 00:00:00,,,,24.25,24.475,24.165,,,,,,
2003-05-05 00:00:00,,,,24.465,24.52,24.23,,,,,,
2003-05-06 00:00:00,,,,24.4,24.575,24.17,,,,,,
2003-05-07 00:00:00,,,,24.21,24.27,23.725,,,,0,5,8
2003-05-08 00:00:00,,,,23.75,23.75,23.275,,,,0,5,8
2003-05-09 00:00:00,,,,23.65,23.835,23.45,,,,,,
2003-05-12 00:00:00,,,,23.68,24.18,23.425,,,,,,
2003-05-13 00:00:00,,,,24.08,24.285,23.905,,,,,,
2003-05-14 00:00:00,,,,24.215,24.235,23.61,,,,,,
2003-05-15 00:00:00,,,,23.8,24.23,23.785,,,,,,
2003-05-16 00:00:00,,,,24.01,24.14,23.95,,,,0,5,8
2003-05-19 00:00:00,,,,24.03,24.06,23.6,,,,,,
2003-05-20 00:00:00,,,,23.665,23.875,23.35,,,,0,4,8
2003-05-21 00:00:00,,,,23.51,23.765,23.29,,,,,,
2003-05-22 00:00:00,,,,23.76,24.015,23.62,,,,,,
2003-05-23 00:00:00,,,,24.065,24.145,23.75,,,,,,
2003-05-27 00:00:00,,,,23.825,24.425,23.68,,,,,,
2003-05-28 00:00:00,,,,24.385,24.385,24.125,,,,,,
2003-05-29 00:00:00,,,,24.35,24.52,23.935,,,,,,
2003-05-30 00:00:00,,,,24.055,24.45,23.98,,,,0,4,8
2003-06-02 00:00:00,,,,24.44,24.8,24.305,,,,,,
2003-06-03 00:00:00,,,,24.59,24.665,24.35,,,,,,
2003-06-04 00:00:00,,,,24.68,25.31,24.665,,,,,,
2003-06-05 00:00:00,,,,25.14,25.24,24.8,,,,,,
2003-06-06 00:00:00,,,,25.175,25.385,24.83,,,,,,
2003-06-09 00:00:00,,,,24.85,24.89,24.38,,,,,,
2003-06-10 00:00:00,,,,24.54,24.75,24.455,,,,,,
2003-06-11 00:00:00,,,,24.65,25,24.59,,,,,,
2003-06-12 00:00:00,,,,25.2,25.6,25.12,,,,,,
2003-06-13 00:00:00,,,,25.575,25.65,25.1,,,,,,
2003-06-16 00:00:00,,,,25.3,25.675,25.28,,,,0,4,8
2003-06-17 00:00:00,,,,25.75,26,25.525,,,,,,
2003-06-18 00:00:00,,,,25.875,25.93,25.52,,,,,,
2003-06-19 00:00:00,,,,25.605,25.75,25.475,,,,,,
2003-06-20 00:00:00,,,,26.025,26.04,25.75,,,,0,4,8
2003-06-23 00:00:00,,,,25.725,25.725,25.25,,,,,,
2003-06-24 00:00:00,,,,25.43,25.575,25.4,,,,,,
2003-06-25 00:00:00,,,,25.5,25.675,25.375,,,,,,
2003-06-26 00:00:00,,,,25.41,25.94,25.4,,,,,,
2003-06-27 00:00:00,,,,25.8,25.8,25.405,,,,0,4,8
2003-06-30 00:00:00,,,,25.49,25.65,25.31,,,,,,
2003-07-01 00:00:00,,,,25.2,25.2,24.6,,,,,,
2003-07-02 00:00:00,,,,24.875,25.025,24.8,,,,,,
2003-07-03 00:00:00,,,,24.845,25,24.575,,,,0,4,8
2003-07-07 00:00:00,,,,24.7,25.25,24.7,,,,,,
2003-07-08 00:00:00,,,,25.075,25.2,24.9,,,,,,
2003-07-09 00:00:00,,,,25.075,25.15,24.835,,,,,,
2003-07-10 00:00:00,,,,24.85,24.85,24.5,,,,,,
2003-07-11 00:00:00,,,,24.815,24.99,24.77,,,,,,
2003-07-14 00:00:00,,,,25.1,25.335,25.005,,,,,,
2003-07-15 00:00:00,,,,25.13,25.31,25.05,,,,,,
2003-07-16 00:00:00,,,,25.145,25.27,24.91,,,,,,
2003-07-17 00:00:00,,,,25.15,25.625,25.125,,,,0,4,8
2003-07-18 00:00:00,,,,25.7,26.275,25.7,,,,0,4,8
2003-07-21 00:00:00,,,,26.225,26.525,26.18,,,,,,
2003-07-22 00:00:00,,,,26.485,26.97,26.385,,,,,,
2003-07-23 00:00:00,,,,27,27.07,26.455,,,,,,
2003-07-24 00:00:00,,,,26.8,27.45,26.775,,,,,,
2003-07-25 00:00:00,,,,27.125,27.75,27.095,,,,,,
2003-07-28 00:00:00,,,,27.725,27.75,27.4,,,,0,4,8
2003-07-29 00:00:00,,,,27.765,27.82,27.225,,,,,,
2003-07-30 00:00:00,,,,27.865,27.95,27.68,,,,,,
2003-07-31 00:00:00,,,,28,28.725,27.985,,,,,,
2003-08-01 00:00:00,,,,28.15,28.15,27.625,,,,0,4,8
2003-08-04 00:00:00,,,,27.735,27.745,27.33,,,,,,
2003-08-05 00:00:00,,,,27.56,27.56,27.26,,,,,,
2003-08-06 00:00:00,,,,27.175,27.345,26.975,,,,,,
2003-08-07 00:00:00,,,,26.6,26.65,26.225,,,,0,3,9
2003-08-08 00:00:00,,,,26.6,26.99,26.595,,,,0,3,10
2003-08-11 00:00:00,,,,26.82,27.09,26.7,,,,,,
2003-08-12 00:00:00,,,,26.885,27.19,26.725,,,,,,
2003-08-13 00:00:00,,,,27.19,27.2,26.945,,,,,,
2003-08-14 00:00:00,,,,27.075,27.615,26.975,,,,,,
2003-08-15 00:00:00,,,,27.6,27.605,27.255,,,,,,
2003-08-18 00:00:00,,,,27.445,27.89,27.39,,,,,,
2003-08-19 00:00:00,,,,27.88,28.165,27.85,,,,,,
2003-08-20 00:00:00,,,,28.07,28.105,27.915,,,,,,
2003-08-21 00:00:00,,,,27.96,28.295,27.9,,,,,,
2003-08-22 00:00:00,,,,28.2,28.25,27.665,,,,,,
2003-08-25 00:00:00,,,,27.675,27.675,27.29,,,,,,
2003-08-26 00:00:00,,,,27.5,27.535,26.965,,,,0,3,9
2003-08-27 00:00:00,,,,27.375,27.39,27.225,,,,,,
2003-08-28 00:00:00,,,,27.275,27.6,26.95,,,,,,
2003-08-29 00:00:00,,,,27.475,27.485,27.245,,,,0,3,9
2003-09-02 00:00:00,,,,27.445,27.725,27.2,,,,,,
2003-09-03 00:00:00,,,,27.725,27.955,27.55,,,,,,
2003-09-04 00:00:00,,,,27.94,27.95,27.41,,,,,,
2003-09-05 00:00:00,,,,27.45,27.545,27.225,,,,,,
2003-09-08 00:00:00,,,,27.39,27.82,27.34,,,,,,
2003-09-09 00:00:00,,,,27.5,27.54,27.12,,,,,,
2003-09-10 00:00:00,,,,27.125,27.18,26.61,,,,,,
2003-09-11 00:00:00,,,,26.7,26.975,26.495,,,,,,
2003-09-12 00:00:00,,,,26.695,27.295,26.475,,,,,,
2003-09-15 00:00:00,,,,27.275,27.325,26.51,,,,0,3,9
2003-09-16 00:00:00,,,,26.75,27.295,26.7,,,,,,
2003-09-17 00:00:00,,,,27.16,27.16,26.95,,,,,,
2003-09-18 00:00:00,,,,27.125,27.465,27.125,,,,,,
2003-09-19 00:00:00,,,,27.465,27.555,27.325,,,,,,
2003-09-22 00:00:00,,,,27.305,27.305,26.875,,,,,,
2003-09-23 00:00:00,,,,27.125,27.275,26.995,,,,,,
2003-09-24 00:00:00,,,,26.85,26.95,26.375,,,,0,2,10
2003-09-25 00:00:00,,,,26.485,26.55,26.135,,,,,,
2003-09-26 00:00:00,,,,26.24,26.3,26.025,,,,,,
2003-09-29 00:00:00,,,,26.275,26.57,26.105,,,,,,
2003-09-30 00:00:00,,,,26.45,26.45,25.79,,,,,,
2003-10-01 00:00:00,,,,26.11,26.495,26.005,,,,,,
2003-10-02 00:00:00,,,,26.59,26.75,26.4,,,,,,
2003-10-03 00:00:00,,,,26.89,27.495,26.89,,,,,,
2003-10-06 00:00:00,,,,27.075,27.33,26.975,,,,,,
2003-10-07 00:00:00,,,,27.225,27.5,27.155,,,,,,
2003-10-08 00:00:00,,,,27.475,27.575,27.26,,,,,,
2003-10-09 00:00:00,,,,27.675,27.74,27.225,,,,,,
2003-10-10 00:00:00,,,,27.325,27.53,27.1,,,,,,
2003-10-13 00:00:00,,,,27.25,27.67,27.25,,,,0,2,10
2003-10-14 00:00:00,,,,27.625,27.785,27.345,,,,,,
2003-10-15 00:00:00,,,,27.7,27.845,27.485,,,,,,
2003-10-16 00:00:00,,,,27.55,27.87,27.53,,,,0,2,10
2003-10-17 00:00:00,,,,27.695,27.9,27.66,,,,,,
2003-10-20 00:00:00,,,,27.975,27.995,27.69,,,,0,2,10
2003-10-21 00:00:00,,,,27.925,27.975,27.845,,,,,,
2003-10-22 00:00:00,,,,27.6,27.64,27.34,,,,,,
2003-10-23 00:00:00,,,,27.49,27.9,27.425,,,,,,
2003-10-24 00:00:00,,,,27.855,27.97,27.65,,,,,,
2003-10-27 00:00:00,,,,27.995,28.19,27.855,,,,,,
2003-10-28 00:00:00,,,,28.1,28.43,27.98,,,,,,
2003-10-29 00:00:00,,,,28.31,28.555,28.115,,,,,,
2003-10-30 00:00:00,,,,28.585,29.09,28.585,,,,,,
2003-10-31 00:00:00,,,,29.05,29.25,28.79,,,,,,
2003-11-03 00:00:00,,,,28.885,29.17,28.86,,,,,,
2003-11-04 00:00:00,,,,29.115,29.165,28.925,,,,,,
2003-11-05 00:00:00,,,,28.975,29.115,28.75,,,,0,2,11
2003-11-06 00:00:00,,,,28.805,28.965,28.575,,,,,,
2003-11-07 00:00:00,,,,29,29.245,28.93,,,,,,
2003-11-10 00:00:00,,,,29.1,29.15,28.725,,,,0,2,10
2003-11-11 00:00:00,,,,29.25,29.25,28.925,,,,0,3,9
2003-11-12 00:00:00,,,,29,29.175,28.84,,,,,,
2003-11-13 00:00:00,,,,29.125,29.185,29,,,,0,3,10
2003-11-14 00:00:00,,,,28.925,29.37,28.925,,,,,,
2003-11-17 00:00:00,,,,28.7,28.95,28.65,,,,,,
2003-11-18 00:00:00,,,,28.75,28.795,28.415,,,,0,3,10
2003-11-19 00:00:00,,,,28.34,28.665,28.2,,,,,,
2003-11-20 00:00:00,,,,28.58,28.68,28.135,,,,,,
2003-11-21 00:00:00,,,,28.315,28.63,28.26,,,,,,
2003-11-24 00:00:00,,,,28.55,29.115,28.55,,,,,,
2003-11-25 00:00:00,,,,29.06,29.33,28.955,,,,,,
2003-11-26 00:00:00,,,,29.055,29.375,29.025,,,,,,
2003-11-28 00:00:00,,,,29.35,29.425,29.23,,,,0,4,9
2003-12-01 00:00:00,,,,29.615,30.68,29.605,,,,,,
2003-12-02 00:00:00,,,,30.5,30.5,30.1,,,,,,
2003-12-03 00:00:00,,,,30.175,30.415,29.78,,,,,,
2003-12-04 00:00:00,,,,30.175,30.5,30.145,,,,,,
2003-12-05 00:00:00,,,,30.435,30.585,30.065,,,,,,
2003-12-08 00:00:00,,,,30.14,30.725,30.14,,,,,,
2003-12-09 00:00:00,,,,30.735,31.27,30.63,,,,1,4,9
2003-12-10 00:00:00,,,,31.24,31.3,30.525,,,,,,
2003-12-11 00:00:00,,,,30.5,30.84,30.365,,,,,,
2003-12-12 00:00:00,,,,30.935,31.4,30.735,,,,,,
2003-12-15 00:00:00,,,,31.55,31.77,31.26,,,,,,
2003-12-16 00:00:00,,,,31.44,31.51,31.24,,,,,,
2003-12-17 00:00:00,,,,31.41,31.615,31.17,,,,,,
2003-12-18 00:00:00,,,,31.6,32,31.5,,,,,,
2003-12-19 00:00:00,,,,31.91,31.94,31.52,,,,,,
2003-12-22 00:00:00,,,,31.635,31.95,31.635,,,,,,
2003-12-23 00:00:00,,,,31.71,31.93,31.595,,,,,,
2003-12-24 00:00:00,,,,31.65,31.825,31.605,,,,,,
2003-12-26 00:00:00,,,,31.675,31.955,31.675,,,,,,
2003-12-29 00:00:00,,,,31.985,32.21,31.75,,,,,,
2003-12-30 00:00:00,,,,32.21,32.21,31.54,,,,,,
2003-12-31 00:00:00,,,,31.95,32.04,31.77,,,,,,
2004-01-02 00:00:00,,,,32.01,32.24,31.755,,,,,,
2004-01-05 00:00:00,,,,31.925,32.3,31.795,,,,,,
2004-01-06 00:00:00,,,,32.05,32.15,31.64,,,,,,
2004-01-07 00:00:00,,,,31.975,31.975,31.35,,,,,,
2004-01-08 00:00:00,,,,31.81,32.105,31.675,,,,,,
2004-01-09 00:00:00,,,,31.975,31.975,31.35,,,,,,
2004-01-12 00:00:00,,,,31.37,31.76,31.25,,,,,,
2004-01-13 00:00:00,,,,31.75,31.875,31.45,,,,2,4,9
2004-01-14 00:00:00,,,,31.66,32.095,31.65,,,,2,4,10
2004-01-15 00:00:00,,,,31.875,32.18,31.63,,,,2,4,9
2004-01-16 00:00:00,,,,31.7,31.84,30.53,,,,2,4,9
2004-01-20 00:00:00,,,,30.72,30.895,30.28,,,,2,4,9
2004-01-21 00:00:00,,,,30.33,30.385,29.925,,,,,,
2004-01-22 00:00:00,,,,30.125,30.14,29.57,,,,,,
2004-01-23 00:00:00,,,,29.825,29.9,29.365,,,,,,
2004-01-26 00:00:00,,,,29.1,29.6,29.075,,,,,,
2004-01-27 00:00:00,,,,29.56,29.675,29.46,,,,,,
2004-01-28 00:00:00,,,,29.575,29.815,29.3,,,,,,
2004-01-29 00:00:00,,,,29.325,29.5,28.895,,,,,,
2004-01-30 00:00:00,,,,29.05,29.275,28.93,,,,,,
2004-02-02 00:00:00,,,,29.135,29.365,29,,,,,,
2004-02-03 00:00:00,,,,29.035,29.15,28.525,,,,,,
2004-02-04 00:00:00,,,,28.58,28.78,28.335,,,,,,
2004-02-05 00:00:00,,,,28.5,29.075,28.5,,,,,,
2004-02-06 00:00:00,,,,28.995,29.375,28.875,,,,,,
2004-02-09 00:00:00,,,,29.35,29.77,29.335,,,,,,
2004-02-10 00:00:00,,,,29.6,29.97,29.52,,,,,,
2004-02-11 00:00:00,,,,29.75,30.355,29.705,,,,,,
2004-02-12 00:00:00,,,,30.075,30.35,30,,,,,,
2004-02-13 00:00:00,,,,30.1,30.185,29.465,,,,1,4,9
2004-02-17 00:00:00,,,,29.575,29.785,29.55,,,,,,
2004-02-18 00:00:00,,,,29.615,29.645,29.25,,,,,,
2004-02-19 00:00:00,,,,29.5,30.24,29.5,,,,,,
2004-02-20 00:00:00,,,,29.775,29.89,29.18,,,,1,4,9
2004-02-23 00:00:00,,,,29.445,29.57,29.25,,,,,,
2004-02-24 00:00:00,,,,29.46,29.815,29.245,,,,,,
2004-02-25 00:00:00,,,,29.44,29.965,29.4,,,,1,4,9
2004-02-26 00:00:00,,,,29.755,29.755,29.38,,,,,,
2004-02-27 00:00:00,,,,29.59,29.75,29.225,,,,1,4,9
2004-03-01 00:00:00,,,,29.435,29.76,29.4,,,,1,4,8
2004-03-02 00:00:00,,,,29.65,29.715,29.335,,,,,,
2004-03-03 00:00:00,,,,29.275,29.345,29.05,,,,,,
2004-03-04 00:00:00,,,,29.21,29.425,29.065,,,,1,4,8
2004-03-05 00:00:00,,,,29.25,29.375,28.905,,,,1,3,8
2004-03-08 00:00:00,,,,29.365,29.525,29.14,,,,,,
2004-03-09 00:00:00,,,,29.27,29.425,28.74,,,,,,
2004-03-10 00:00:00,,,,28.95,29.05,28.11,,,,,,
2004-03-11 00:00:00,,,,27.9,28.66,27.81,,,,,,
2004-03-12 00:00:00,,,,28.325,29.025,28.23,,,,,,
2004-03-15 00:00:00,,,,28.82,28.82,28.02,,,,,,
2004-03-16 00:00:00,,,,28.6,28.795,28.21,,,,1,3,8
2004-03-17 00:00:00,,,,28.625,28.77,28.555,,,,,,
2004-03-18 00:00:00,,,,28.51,28.535,27.985,,,,,,
2004-03-19 00:00:00,,,,28.375,28.505,28.075,,,,,,
2004-03-22 00:00:00,,,,27.875,27.875,27.405,,,,,,
2004-03-23 00:00:00,,,,27.9,28.25,27.69,,,,,,
2004-03-24 00:00:00,,,,27.61,27.875,27.52,,,,,,
2004-03-25 00:00:00,,,,27.74,28.53,27.68,,,,,,
2004-03-26 00:00:00,,,,27.75,28.265,27.75,,,,,,
2004-03-29 00:00:00,,,,28.35,29.075,28.35,,,,,,
2004-03-30 00:00:00,,,,28.775,29.02,28.655,,,,,,
2004-03-31 00:00:00,,,,29.03,29.38,28.83,,,,,,
2004-04-01 00:00:00,,,,29.325,29.81,29.25,,,,,,
2004-04-02 00:00:00,,,,30.075,30.22,29.72,,,,,,
2004-04-05 00:00:00,,,,29.725,29.99,29.685,,,,1,3,7
2004-04-06 00:00:00,,,,29.925,29.99,29.74,,,,,,
2004-04-07 00:00:00,,,,29.96,29.96,29.55,,,,,,
2004-04-08 00:00:00,,,,30.175,30.245,29.71,,,,0,3,8
2004-04-12 00:00:00,,,,29.9,30.18,29.9,,,,,,
2004-04-13 00:00:00,,,,30.24,30.25,29.65,,,,,,
2004-04-14 00:00:00,,,,29.575,29.915,29.33,,,,,,
2004-04-15 00:00:00,,,,30.425,31.125,30.26,,,,0,4,7
2004-04-16 00:00:00,,,,30.4,30.97,30.175,,,,0,4,7
2004-04-19 00:00:00,,,,30.74,31.06,30.625,,,,0,4,8
2004-04-20 00:00:00,,,,31.075,31.235,30.48,,,,,,
2004-04-21 00:00:00,,,,30.62,30.695,30.24,,,,,,
2004-04-22 00:00:00,,,,30.5,31.44,30.5,,,,0,3,8
2004-04-23 00:00:00,,,,31.2,31.2,30.525,,,,,,
2004-04-26 00:00:00,,,,31.035,31.27,30.88,,,,,,
2004-04-27 00:00:00,,,,31.125,31.37,30.915,,,,,,
2004-04-28 00:00:00,,,,31,31,30.125,,,,,,
2004-04-29 00:00:00,,,,30.27,30.475,29.525,,,,,,
2004-04-30 00:00:00,,,,29.95,30.105,29.635,,,,,,
2004-05-03 00:00:00,,,,29.85,29.855,29.37,,,,,,
2004-05-04 00:00:00,,,,29.58,29.835,29.335,,,,,,
2004-05-05 00:00:00,,,,29.625,29.765,29.355,,,,0,3,8
2004-05-06 00:00:00,,,,29.455,29.64,29.34,,,,,,
2004-05-07 00:00:00,,,,29.575,29.6,28.775,,,,,,
2004-05-10 00:00:00,,,,28.6,28.74,28.135,,,,,,
2004-05-11 00:00:00,,,,28.39,28.77,28.39,,,,,,
2004-05-12 00:00:00,,,,28.55,28.735,28.065,,,,0,3,8
2004-05-13 00:00:00,,,,28.675,29.25,28.59,,,,,,
2004-05-14 00:00:00,,,,28.95,29.235,28.675,,,,,,
2004-05-17 00:00:00,,,,29.055,29.055,28.385,,,,,,
2004-05-18 00:00:00,,,,28.68,28.75,28.405,,,,,,
2004-05-19 00:00:00,,,,28.875,29.2,28.365,,,,,,
2004-05-20 00:00:00,,,,28.55,28.75,28.345,,,,,,
2004-05-21 00:00:00,,,,28.85,29.41,28.79,,,,,,
2004-05-24 00:00:00,,,,29.26,29.58,28.86,,,,,,
2004-05-25 00:00:00,,,,29.05,29.655,28.7,,,,,,
2004-05-26 00:00:00,,,,29.63,29.855,29.44,,,,,,
2004-05-27 00:00:00,,,,29.975,30.31,29.86,,,,,,
2004-05-28 00:00:00,,,,30.025,30.04,29.6,,,,,,
2004-05-31 00:00:00,,,,,,,,,,0,3,7
2004-06-01 00:00:00,,,,29.8,30.005,29.73,,,,,,
2004-06-02 00:00:00,,,,30.125,30.205,29.77,,,,,,
2004-06-03 00:00:00,,,,30.125,30.125,29.65,,,,0,3,7
2004-06-04 00:00:00,,,,29.95,30.28,29.92,,,,,,
2004-06-07 00:00:00,,,,30.325,30.6,30.25,,,,,,
2004-06-08 00:00:00,,,,30.54,30.55,30.31,,,,,,
2004-06-09 00:00:00,,,,30.535,30.66,30.36,,,,,,
2004-06-10 00:00:00,,,,30.625,30.64,30.39,,,,,,
2004-06-14 00:00:00,,,,30.495,30.495,29.925,,,,,,
2004-06-15 00:00:00,,,,30.23,30.4,29.9,,,,,,
2004-06-16 00:00:00,,,,30.05,30.2,29.765,,,,,,
2004-06-17 00:00:00,,,,30.145,30.185,29.955,,,,,,
2004-06-18 00:00:00,,,,30.135,30.99,30.125,,,,,,
2004-06-21 00:00:00,,,,30.975,30.975,30.605,,,,,,
2004-06-22 00:00:00,,,,30.6,30.855,30.37,,,,,,
2004-06-23 00:00:00,,,,30.8,31.225,30.765,,,,,,
2004-06-24 00:00:00,,,,31,31.13,30.81,,,,,,
2004-06-25 00:00:00,,,,30.815,31.05,30.645,,,,,,
2004-06-28 00:00:00,,,,31,31.03,30.625,,,,,,
2004-06-29 00:00:00,,,,30.775,31.445,30.74,,,,,,
2004-06-30 00:00:00,,,,31.32,31.41,31.085,,,,,,
2004-07-01 00:00:00,,,,31.25,31.375,30.31,,,,,,
2004-07-02 00:00:00,,,,30.5,30.54,30.055,,,,,,
2004-07-06 00:00:00,,,,30.21,30.49,30.105,,,,,,
2004-07-07 00:00:00,,,,30.25,30.465,30.185,,,,,,
2004-07-08 00:00:00,,,,30.165,30.5,29.975,,,,,,
2004-07-09 00:00:00,,,,30.27,30.805,30.265,,,,,,
2004-07-12 00:00:00,,,,30.645,30.82,30.375,,,,,,
2004-07-13 00:00:00,,,,30.635,30.86,30.55,,,,,,
2004-07-14 00:00:00,,,,30.5,31.125,30.435,,,,,,
2004-07-15 00:00:00,,,,30.805,31,30.405,,,,,,
2004-07-16 00:00:00,,,,30.65,30.65,29.865,,,,0,3,7
2004-07-19 00:00:00,,,,29.865,29.915,29.49,,,,,,
2004-07-20 00:00:00,,,,29.55,29.61,29.25,,,,,,
2004-07-21 00:00:00,,,,29.625,29.73,29.045,,,,,,
2004-07-22 00:00:00,,,,29,29.17,28.57,,,,,,
2004-07-23 00:00:00,,,,29.045,29.215,28.795,,,,,,
2004-07-26 00:00:00,,,,28.9,29.055,28.825,,,,0,3,7
2004-07-27 00:00:00,,,,29.045,29.42,28.895,,,,,,
2004-07-28 00:00:00,,,,29.125,29.49,28.975,,,,,,
2004-07-29 00:00:00,,,,29.455,29.865,29.455,,,,,,
2004-07-30 00:00:00,,,,29.775,29.775,29.4,,,,,,
2004-08-02 00:00:00,,,,29.395,29.805,29.21,,,,,,
2004-08-03 00:00:00,,,,29.59,29.65,29.3,,,,,,
2004-08-04 00:00:00,,,,29.425,30.05,29.225,,,,,,
2004-08-05 00:00:00,,,,29.87,29.875,28.975,,,,,,
2004-08-06 00:00:00,,,,28.475,28.585,28.24,,,,,,
2004-08-09 00:00:00,,,,28.315,28.645,28.235,,,,0,3,5
2004-08-10 00:00:00,,,,28.6,29.085,28.565,,,,,,
2004-08-11 00:00:00,,,,28.96,29.205,28.645,,,,,,
2004-08-12 00:00:00,,,,29.09,29.09,28.45,,,,,,
2004-08-13 00:00:00,,,,28.525,28.635,28.1,,,,,,
2004-08-16 00:00:00,,,,28.425,29.38,28.425,,,,,,
2004-08-17 00:00:00,,,,29.395,29.71,29.38,,,,,,
2004-08-18 00:00:00,,,,29.5,29.88,29.375,,,,,,
2004-08-19 00:00:00,,,,29.8,29.85,29.56,,,,,,
2004-08-20 00:00:00,,,,29.8,29.97,29.75,,,,,,
2004-08-23 00:00:00,,,,29.875,29.9,29.45,,,,,,
2004-08-24 00:00:00,,,,29.6,29.885,29.59,,,,,,
2004-08-25 00:00:00,,,,29.855,30.225,29.53,,,,,,
2004-08-26 00:00:00,,,,29.96,30.24,29.955,,,,,,
2004-08-27 00:00:00,,,,30.14,30.145,29.85,,,,,,
2004-08-30 00:00:00,,,,29.875,30.105,29.775,,,,,,
2004-08-31 00:00:00,,,,29.875,30.06,29.71,,,,,,
2004-09-01 00:00:00,,,,29.825,30.075,29.675,,,,,,
2004-09-02 00:00:00,,,,29.825,30.42,29.825,,,,,,
2004-09-03 00:00:00,,,,30.29,30.53,30.29,,,,,,
2004-09-07 00:00:00,,,,30.55,30.6,30.275,,,,,,
2004-09-08 00:00:00,,,,30.325,30.4,30.065,,,,,,
2004-09-09 00:00:00,,,,30.2,30.365,29.94,,,,,,
2004-09-10 00:00:00,,,,29.925,30.005,29.59,,,,,,
2004-09-13 00:00:00,,,,30,30.185,29.975,,,,,,
2004-09-14 00:00:00,,,,29.96,30,29.53,,,,,,
2004-09-15 00:00:00,,,,29.65,29.915,29.65,,,,,,
2004-09-16 00:00:00,,,,29.73,30.085,29.73,,,,,,
2004-09-17 00:00:00,,,,29.905,30.095,29.725,,,,,,
2004-09-20 00:00:00,,,,29.7,30,29.63,,,,,,
2004-09-21 00:00:00,,,,29.81,30.035,29.565,,,,,,
2004-09-22 00:00:00,,,,29.72,29.72,29.475,,,,,,
2004-09-23 00:00:00,,,,29.56,29.58,29.185,,,,,,
2004-09-24 00:00:00,,,,29.5,29.9,29.385,,,,,,
2004-09-27 00:00:00,,,,29.83,29.94,29.58,,,,,,
2004-09-28 00:00:00,,,,29.74,30.27,29.73,,,,,,
2004-09-29 00:00:00,,,,30.08,30.635,30.005,,,,,,
2004-09-30 00:00:00,,,,30.435,30.94,30.435,,,,,,
2004-10-01 00:00:00,,,,30.7,31.03,30.535,,,,,,
2004-10-04 00:00:00,,,,31.075,31.28,30.99,,,,,,
2004-10-05 00:00:00,,,,31.075,31.15,30.785,,,,0,3,6
2004-10-06 00:00:00,,,,31,31.16,30.925,,,,,,
2004-10-07 00:00:00,,,,31,31.08,30.68,,,,,,
2004-10-08 00:00:00,,,,30.695,30.695,30.38,,,,,,
2004-10-11 00:00:00,,,,30.5,30.725,30.38,,,,,,
2004-10-12 00:00:00,,,,30.475,30.475,30.05,,,,,,
2004-10-13 00:00:00,,,,30.455,30.455,29.445,,,,,,
2004-10-14 00:00:00,,,,30.125,30.125,29.83,,,,0,4,6
2004-10-15 00:00:00,,,,29.925,30.45,29.84,,,,,,
2004-10-18 00:00:00,,,,30.305,30.495,30.045,,,,,,
2004-10-19 00:00:00,,,,30.4,30.54,29.7,,,,0,4,6
2004-10-20 00:00:00,,,,29.755,30.1,29.725,,,,,,
2004-10-21 00:00:00,,,,29.885,30.375,29.6,,,,,,
2004-10-22 00:00:00,,,,30.45,30.7,30.065,,,,,,
2004-10-25 00:00:00,,,,29.94,30.47,29.815,,,,0,4,6
2004-10-26 00:00:00,,,,30.525,30.96,30.425,,,,,,
2004-10-27 00:00:00,,,,30.99,31.44,30.725,,,,,,
2004-10-28 00:00:00,,,,31.275,31.275,30.845,,,,,,
2004-10-29 00:00:00,,,,31.225,31.905,31.225,,,,,,
2004-11-01 00:00:00,,,,31.575,31.88,31.385,,,,,,
2004-11-02 00:00:00,,,,31.825,32.15,31.645,,,,,,
2004-11-03 00:00:00,,,,32.1,32.5,32.075,,,,0,4,6
2004-11-04 00:00:00,,,,32.3,33.07,32.2,,,,,,
2004-11-05 00:00:00,,,,33.04,33.295,32.635,,,,,,
2004-11-08 00:00:00,,,,32.49,32.87,32.49,,,,0,4,5
2004-11-09 00:00:00,,,,32.81,33.325,32.785,,,,,,
2004-11-10 00:00:00,,,,33.18,33.235,32.95,,,,,,
2004-11-11 00:00:00,,,,33.005,33.455,32.84,,,,,,
2004-11-12 00:00:00,,,,33.38,33.5,33.205,,,,0,4,5
2004-11-15 00:00:00,,,,33.495,33.56,33.25,,,,,,
2004-11-16 00:00:00,,,,33.275,33.6,33.175,,,,,,
2004-11-17 00:00:00,,,,33.25,33.98,33.25,,,,,,
2004-11-18 00:00:00,,,,33.675,33.8,33.52,,,,,,
2004-11-19 00:00:00,,,,33.775,33.775,33.15,,,,,,
2004-11-22 00:00:00,,,,33.55,33.745,33.305,,,,,,
2004-11-23 00:00:00,,,,33.695,33.72,33.425,,,,,,
2004-11-24 00:00:00,,,,33.58,33.805,33.475,,,,,,
2004-11-26 00:00:00,,,,33.675,34.1,33.66,,,,,,
2004-11-29 00:00:00,,,,33.965,34.065,33.585,,,,0,4,5
2004-11-30 00:00:00,,,,33.925,34.05,33.735,,,,,,
2004-12-01 00:00:00,,,,33.78,34.3,33.76,,,,,,
2004-12-02 00:00:00,,,,34.275,34.275,33.86,,,,,,
2004-12-03 00:00:00,,,,33.85,33.995,33.575,,,,,,
2004-12-06 00:00:00,,,,33.725,33.925,33.675,,,,,,
2004-12-07 00:00:00,,,,33.89,33.925,32.81,,,,,,
2004-12-08 00:00:00,,,,33.06,33.115,32.68,,,,,,
2004-12-09 00:00:00,,,,32.925,32.975,32.37,,,,,,
2004-12-10 00:00:00,,,,32.92,32.935,32.545,,,,,,
2004-12-13 00:00:00,,,,32.85,33.175,32.62,,,,0,5,4
2004-12-14 00:00:00,,,,33.175,33.66,33.17,,,,,,
2004-12-15 00:00:00,,,,33.5,33.835,33.5,,,,,,
2004-12-16 00:00:00,,,,33.875,33.89,33.445,,,,,,
2004-12-17 00:00:00,,,,33.5,33.57,33.17,,,,,,
2004-12-20 00:00:00,,,,33.325,33.72,33.305,,,,,,
2004-12-21 00:00:00,,,,33.675,34,33.54,,,,,,
2004-12-22 00:00:00,,,,33.95,34.165,33.855,,,,,,
2004-12-23 00:00:00,,,,33.92,34.03,33.83,,,,,,
2004-12-27 00:00:00,,,,34.12,34.185,33.84,,,,,,
2004-12-28 00:00:00,,,,33.84,34.085,33.755,,,,,,
2004-12-29 00:00:00,,,,34.085,34.175,33.945,,,,,,
2004-12-30 00:00:00,,,,34.125,34.13,33.925,,,,,,
2004-12-31 00:00:00,,,,34.235,34.395,34.01,,,,,,
2005-01-03 00:00:00,,,,34.145,34.175,33.525,,,,,,
2005-01-04 00:00:00,,,,33.59,33.59,32.735,,,,,,
2005-01-05 00:00:00,,,,32.845,33.175,32.4,,,,,,
2005-01-06 00:00:00,,,,32.4,32.985,32.29,,,,,,
2005-01-07 00:00:00,,,,32.86,33.285,32.845,,,,,,
2005-01-10 00:00:00,,,,33.01,33.275,32.775,,,,,,
2005-01-11 00:00:00,,,,32.93,32.93,32.34,,,,,,
2005-01-12 00:00:00,,,,32.575,33.04,32.33,,,,,,
2005-01-13 00:00:00,,,,33.045,33.25,32.81,,,,,,
2005-01-14 00:00:00,,,,32.94,33.105,32.78,,,,,,
2005-01-17 00:00:00,,,,,,,,,,0,5,3
2005-01-18 00:00:00,,,,33.025,33.185,32.645,,,,,,
2005-01-19 00:00:00,,,,33.225,33.425,33.1,,,,,,
2005-01-20 00:00:00,,,,33.255,33.42,33,,,,0,5,3
2005-01-21 00:00:00,,,,33.45,33.605,33.34,,,,0,6,3
2005-01-24 00:00:00,,,,33.565,33.69,33.275,,,,,,
2005-01-25 00:00:00,,,,33.475,34.015,33.475,,,,,,
2005-01-26 00:00:00,,,,33.975,34.005,33.8,,,,,,
2005-01-27 00:00:00,,,,33.975,34.06,33.78,,,,,,
2005-01-28 00:00:00,,,,34.01,34.075,33.575,,,,,,
2005-01-31 00:00:00,,,,34.125,34.39,34.08,,,,,,
2005-02-01 00:00:00,,,,34.385,34.625,34.315,,,,,,
2005-02-02 00:00:00,,,,34.625,34.815,34.415,,,,,,
2005-02-03 00:00:00,,,,34.815,34.815,34.495,,,,,,
2005-02-04 00:00:00,,,,34.725,35.175,34.72,,,,,,
2005-02-07 00:00:00,,,,35.175,35.48,35.13,,,,,,
2005-02-08 00:00:00,,,,35.3,35.575,35.175,,,,,,
2005-02-09 00:00:00,,,,35.475,35.475,35.01,,,,,,
2005-02-10 00:00:00,,,,35.2,35.625,35.2,,,,,,
2005-02-11 00:00:00,,,,35.425,35.99,35.275,,,,,,
2005-02-14 00:00:00,,,,35.65,35.74,35.47,,,,0,6,3
2005-02-15 00:00:00,,,,35.755,36.065,35.64,,,,0,6,3
2005-02-16 00:00:00,,,,35.725,36.065,35.565,,,,,,
2005-02-17 00:00:00,,,,35.9,36,35.66,,,,,,
2005-02-18 00:00:00,,,,35.75,35.905,35.615,,,,,,
2005-02-22 00:00:00,,,,35.425,35.68,35.11,,,,,,
2005-02-23 00:00:00,,,,35.375,35.815,35.25,,,,,,
2005-02-24 00:00:00,,,,35.75,35.995,35.575,,,,,,
2005-02-25 00:00:00,,,,35.97,36.54,35.88,,,,,,
2005-02-28 00:00:00,,,,36.475,36.475,35.785,,,,,,
2005-03-01 00:00:00,,,,36.175,36.47,36.13,,,,,,
2005-03-02 00:00:00,,,,36.195,36.265,35.825,,,,,,
2005-03-03 00:00:00,,,,36.05,36.345,35.92,,,,,,
2005-03-04 00:00:00,,,,36.5,36.93,36.48,,,,0,6,3
2005-03-07 00:00:00,,,,36.685,36.85,36.545,,,,,,
2005-03-08 00:00:00,,,,36.74,37.035,36.73,,,,,,
2005-03-09 00:00:00,,,,36.97,37.365,36.825,,,,,,
2005-03-10 00:00:00,,,,36.825,36.945,36.095,,,,0,6,3
2005-03-11 00:00:00,,,,36.74,37.005,36.425,,,,0,6,3
2005-03-14 00:00:00,,,,36.635,36.915,36.4,,,,,,
2005-03-15 00:00:00,,,,36.785,36.88,36.505,,,,,,
2005-03-16 00:00:00,,,,36.505,36.505,35.595,,,,,,
2005-03-17 00:00:00,,,,35.92,36.29,35.66,,,,,,
2005-03-18 00:00:00,,,,36.1,36.27,35.76,,,,,,
2005-03-21 00:00:00,,,,35.9,35.93,35.33,,,,,,
2005-03-22 00:00:00,,,,35.75,36.3,35.615,,,,,,
2005-03-23 00:00:00,,,,35.625,35.655,35.215,,,,,,
2005-03-24 00:00:00,,,,35.255,35.58,35.15,,,,0,6,3
2005-03-28 00:00:00,,,,35.36,35.625,35.24,,,,,,
2005-03-29 00:00:00,,,,35.315,35.68,34.73,,,,,,
2005-03-30 00:00:00,,,,35,35.565,34.945,,,,0,6,3
2005-03-31 00:00:00,,,,35.605,35.87,35.55,,,,,,
2005-04-01 00:00:00,,,,35.89,36.05,35.18,,,,,,
2005-04-04 00:00:00,,,,35.26,35.525,35.13,,,,,,
2005-04-05 00:00:00,,,,35.41,35.56,35.285,,,,0,6,3
2005-04-06 00:00:00,,,,35.65,35.845,35.59,,,,0,6,4
2005-04-07 00:00:00,,,,35.735,35.92,35.55,,,,,,
2005-04-08 00:00:00,,,,35.85,35.89,35.04,,,,,,
2005-04-11 00:00:00,,,,35.095,35.1,34.175,,,,,,
2005-04-12 00:00:00,,,,34.505,34.985,34.1,,,,,,
2005-04-13 00:00:00,,,,34.975,34.975,33.99,,,,,,
2005-04-14 00:00:00,,,,34.205,34.22,32.99,,,,,,
2005-04-15 00:00:00,,,,33.04,33.24,32.39,,,,,,
2005-04-18 00:00:00,,,,32.475,32.89,32.15,,,,0,5,4
2005-04-19 00:00:00,,,,32.9,33.41,32.865,,,,,,
2005-04-20 00:00:00,,,,33.365,33.54,32.86,,,,0,5,4
2005-04-21 00:00:00,,,,33.375,33.785,32.965,,,,,,
2005-04-22 00:00:00,,,,34.5,34.5,33.435,,,,0,5,5
2005-04-25 00:00:00,,,,33.9,34.55,33.85,,,,0,5,5
2005-04-26 00:00:00,,,,34,34.075,33.23,,,,,,
2005-04-27 00:00:00,,,,33.235,33.355,32.81,,,,,,
2005-04-28 00:00:00,,,,33.255,33.545,33.055,,,,0,5,5
2005-04-29 00:00:00,,,,33.44,33.965,33.265,,,,,,
2005-05-02 00:00:00,,,,33.785,34.23,33.765,,,,,,
2005-05-03 00:00:00,,,,33.975,34.35,33.86,,,,,,
2005-05-04 00:00:00,,,,34.07,34.515,34.06,,,,,,
2005-05-05 00:00:00,,,,34.495,34.8,34.155,,,,,,
2005-05-06 00:00:00,,,,34.35,34.615,34.175,,,,,,
2005-05-09 00:00:00,,,,34.295,34.325,33.93,,,,,,
2005-05-10 00:00:00,,,,34.18,34.18,33.53,,,,0,5,5
2005-05-11 00:00:00,,,,33.7,33.755,33.1,,,,,,
2005-05-12 00:00:00,,,,33.58,33.595,32.54,,,,0,5,6
2005-05-13 00:00:00,,,,32.525,32.75,31.84,,,,,,
2005-05-16 00:00:00,,,,32.24,32.5,32.08,,,,,,
2005-05-17 00:00:00,,,,32.395,32.995,32.145,,,,,,
2005-05-18 00:00:00,,,,33.085,33.805,33.05,,,,,,
2005-05-19 00:00:00,,,,33.625,33.625,33.08,,,,,,
2005-05-20 00:00:00,,,,33.31,33.31,32.82,,,,,,
2005-05-23 00:00:00,,,,33.12,33.665,33.095,,,,,,
2005-05-24 00:00:00,,,,33.35,33.505,33.09,,,,,,
2005-05-25 00:00:00,,,,33.305,33.305,32.77,,,,,,
2005-05-26 00:00:00,,,,33.12,33.195,32.96,,,,,,
2005-05-27 00:00:00,,,,33.075,33.14,32.87,,,,,,
2005-05-31 00:00:00,,,,32.85,32.9,32.515,,,,,,
2005-06-01 00:00:00,,,,32.595,33.41,32.595,,,,,,
2005-06-02 00:00:00,,,,33.1,33.195,32.765,,,,,,
2005-06-03 00:00:00,,,,32.99,33.265,32.65,,,,,,
2005-06-06 00:00:00,,,,32.715,32.79,32.615,,,,,,
2005-06-07 00:00:00,,,,32.875,33.17,32.625,,,,,,
2005-06-08 00:00:00,,,,32.785,32.885,32.525,,,,,,
2005-06-09 00:00:00,,,,32.6,32.6,31.93,,,,,,
2005-06-10 00:00:00,,,,32.53,32.72,32.395,,,,,,
2005-06-13 00:00:00,,,,32.57,32.935,32.46,,,,0,6,6
2005-06-14 00:00:00,,,,32.55,32.76,32.55,,,,,,
2005-06-15 00:00:00,,,,32.95,32.95,32.62,,,,,,
2005-06-16 00:00:00,,,,32.95,33.79,32.95,,,,0,6,6
2005-06-17 00:00:00,,,,33.85,33.85,33.3,,,,,,
2005-06-20 00:00:00,,,,33.15,33.18,32.83,,,,,,
2005-06-21 00:00:00,,,,32.925,32.95,32.555,,,,,,
2005-06-22 00:00:00,,,,32.925,33.015,32.58,,,,,,
2005-06-23 00:00:00,,,,32.66,32.745,31.86,,,,,,
2005-06-24 00:00:00,,,,31.98,32.005,31.435,,,,,,
2005-06-27 00:00:00,,,,31.605,31.925,31.31,,,,,,
2005-06-28 00:00:00,,,,31.78,32.32,31.725,,,,0,6,6
2005-06-29 00:00:00,,,,32.065,32.17,31.9,,,,,,
2005-06-30 00:00:00,,,,31.815,31.99,31.345,,,,,,
2005-07-01 00:00:00,,,,31.625,31.695,31.365,,,,,,
2005-07-05 00:00:00,,,,31.45,31.54,31.2,,,,,,
2005-07-06 00:00:00,,,,31.4,31.53,31.14,,,,,,
2005-07-07 00:00:00,,,,30.655,31.03,30.515,,,,,,
2005-07-08 00:00:00,,,,31.23,31.7,31.175,,,,,,
2005-07-11 00:00:00,,,,31.78,32.245,31.74,,,,,,
2005-07-12 00:00:00,,,,32.12,32.31,31.685,,,,,,
2005-07-13 00:00:00,,,,32.165,32.26,31.695,,,,,,
2005-07-14 00:00:00,,,,32,32.41,31.965,,,,,,
2005-07-15 00:00:00,,,,32.15,32.365,31.985,,,,,,
2005-07-18 00:00:00,,,,32.015,32.26,31.86,,,,,,
2005-07-19 00:00:00,,,,32.165,32.45,32.065,,,,,,
2005-07-20 00:00:00,,,,32.34,32.905,32.165,,,,,,
2005-07-21 00:00:00,,,,32.87,32.88,32.2,,,,0,6,6
2005-07-22 00:00:00,,,,32.25,32.85,32.125,,,,0,5,7
2005-07-25 00:00:00,,,,32.84,32.915,32.425,,,,,,
2005-07-26 00:00:00,,,,32.425,32.43,31.63,,,,,,
2005-07-27 00:00:00,,,,32.375,32.74,32.34,,,,,,
2005-07-28 00:00:00,,,,32.94,33.205,32.895,,,,,,
2005-07-29 00:00:00,,,,32.925,33.095,32.515,,,,,,
2005-08-01 00:00:00,,,,32.675,32.745,32.5,,,,,,
2005-08-02 00:00:00,,,,32.665,33.06,32.65,,,,,,
2005-08-03 00:00:00,,,,32.825,33.26,32.75,,,,,,
2005-08-04 00:00:00,,,,33.2,33.225,32.51,,,,,,
2005-08-05 00:00:00,,,,32.545,32.585,32.23,,,,,,
2005-08-08 00:00:00,,,,32.24,32.465,32.115,,,,,,
2005-08-09 00:00:00,,,,32.325,32.425,32.23,,,,0,5,7
2005-08-10 00:00:00,,,,32.43,32.57,32.155,,,,,,
2005-08-11 00:00:00,,,,32.355,32.83,32.325,,,,,,
2005-08-12 00:00:00,,,,32.7,32.75,32.125,,,,,,
2005-08-15 00:00:00,,,,32.295,32.49,32.065,,,,,,
2005-08-16 00:00:00,,,,32.325,32.39,31.74,,,,,,
2005-08-17 00:00:00,,,,31.745,31.9,31.505,,,,,,
2005-08-18 00:00:00,,,,31.595,31.7,31.335,,,,,,
2005-08-19 00:00:00,,,,31.885,32.155,31.665,,,,,,
2005-08-22 00:00:00,,,,32.055,32.32,31.805,,,,,,
2005-08-23 00:00:00,,,,31.965,32.01,31.425,,,,,,
2005-08-24 00:00:00,,,,31.8,31.885,31.52,,,,0,5,7
2005-08-25 00:00:00,,,,31.58,31.625,31.275,,,,,,
2005-08-26 00:00:00,,,,31.385,31.385,31.115,,,,,,
2005-08-29 00:00:00,,,,31.135,31.485,30.925,,,,,,
2005-08-30 00:00:00,,,,31.35,31.375,31.005,,,,,,
2005-08-31 00:00:00,,,,31.285,31.49,31.02,,,,,,
2005-09-01 00:00:00,,,,31.455,31.65,31.365,,,,,,
2005-09-02 00:00:00,,,,31.5,31.565,31.15,,,,,,
2005-09-06 00:00:00,,,,31.525,31.66,31.31,,,,0,5,7
2005-09-07 00:00:00,,,,31.45,31.69,31.44,,,,0,5,7
2005-09-08 00:00:00,,,,31.525,31.625,31.29,,,,0,5,7
2005-09-09 00:00:00,,,,31.46,31.46,31.16,,,,,,
2005-09-12 00:00:00,,,,31.37,31.585,31.325,,,,,,
2005-09-13 00:00:00,,,,31.49,31.525,31.055,,,,,,
2005-09-14 00:00:00,,,,31.08,31.15,30.85,,,,,,
2005-09-15 00:00:00,,,,30.955,30.98,30.645,,,,,,
2005-09-16 00:00:00,,,,30.84,31.09,30.53,,,,,,
2005-09-19 00:00:00,,,,30.95,30.95,30.65,,,,,,
2005-09-20 00:00:00,,,,30.995,31.175,30.055,,,,,,
2005-09-21 00:00:00,,,,29.955,29.955,29.35,,,,,,
2005-09-22 00:00:00,,,,29.485,29.68,29.115,,,,,,
2005-09-23 00:00:00,,,,29.68,29.945,29.38,,,,,,
2005-09-26 00:00:00,,,,29.935,30.055,29.345,,,,0,5,7
2005-09-27 00:00:00,,,,29.45,29.55,29.075,,,,,,
2005-09-28 00:00:00,,,,29.14,29.27,28.915,,,,,,
2005-09-29 00:00:00,,,,29,29.26,28.705,,,,0,5,7
2005-09-30 00:00:00,,,,29.15,29.65,29.06,,,,0,5,7
2005-10-03 00:00:00,,,,29.645,29.645,29.065,,,,,,
2005-10-04 00:00:00,,,,29.095,29.22,28.66,,,,,,
2005-10-05 00:00:00,,,,28.695,28.695,28.235,,,,0,5,7
2005-10-06 00:00:00,,,,28.38,28.59,27.925,,,,,,
2005-10-07 00:00:00,,,,28.275,28.76,28.275,,,,,,
2005-10-10 00:00:00,,,,28.645,28.65,28.145,,,,0,5,7
2005-10-11 00:00:00,,,,28.25,28.335,27.915,,,,,,
2005-10-12 00:00:00,,,,27.925,28.215,27.82,,,,0,5,7
2005-10-13 00:00:00,,,,27.91,28.255,27.855,,,,0,5,7
2005-10-14 00:00:00,,,,28.225,28.49,28.11,,,,,,
2005-10-17 00:00:00,,,,28.43,28.55,28.32,,,,,,
2005-10-18 00:00:00,,,,28.505,28.605,28.295,,,,0,5,8
2005-10-19 00:00:00,,,,28.275,28.55,28.065,,,,,,
2005-10-20 00:00:00,,,,28.525,29.405,28.425,,,,0,5,8
2005-10-21 00:00:00,,,,29.32,29.835,29.13,,,,0,5,8
2005-10-24 00:00:00,,,,29.345,29.685,29.345,,,,,,
2005-10-25 00:00:00,,,,29.5,29.675,28.94,,,,,,
2005-10-26 00:00:00,,,,28.91,29.43,28.91,,,,,,
2005-10-27 00:00:00,,,,29.075,29.25,28.945,,,,,,
2005-10-28 00:00:00,,,,29.115,29.7,29.045,,,,,,
2005-10-31 00:00:00,,,,29.765,30.14,29.76,,,,,,
2005-11-01 00:00:00,,,,29.95,30.09,29.73,,,,,,
2005-11-02 00:00:00,,,,29.94,30.395,29.84,,,,,,
2005-11-03 00:00:00,,,,30.405,30.58,29.975,,,,,,
2005-11-04 00:00:00,,,,30.085,30.155,29.69,,,,,,
2005-11-07 00:00:00,,,,29.85,30.16,29.8,,,,,,
2005-11-08 00:00:00,,,,29.78,29.86,29.48,,,,,,
2005-11-09 00:00:00,,,,29.575,29.885,29.45,,,,,,
2005-11-10 00:00:00,,,,29.575,30.345,29.35,,,,,,
2005-11-11 00:00:00,,,,30.12,30.31,30,,,,,,
2005-11-14 00:00:00,,,,29.95,30.325,29.91,,,,,,
2005-11-15 00:00:00,,,,30.265,30.465,30.225,,,,,,
2005-11-16 00:00:00,,,,30.365,30.47,29.905,,,,,,
2005-11-17 00:00:00,,,,29.95,30.21,29.875,,,,,,
2005-11-18 00:00:00,,,,30.525,30.53,30.19,,,,,,
2005-11-21 00:00:00,,,,30.455,30.9,30.445,,,,,,
2005-11-22 00:00:00,,,,30.88,31.095,30.76,,,,0,5,9
2005-11-23 00:00:00,,,,30.91,31.075,30.78,,,,,,
2005-11-25 00:00:00,,,,30.785,30.96,30.55,,,,,,
2005-11-28 00:00:00,,,,30.59,30.59,30.325,,,,,,
2005-11-29 00:00:00,,,,30.62,30.875,30.48,,,,,,
2005-11-30 00:00:00,,,,30.775,30.895,30.36,,,,,,
2005-12-01 00:00:00,,,,30.5,30.835,30.46,,,,0,5,9
2005-12-02 00:00:00,,,,30.635,30.635,30.4,,,,,,
2005-12-05 00:00:00,,,,30.29,30.385,29.99,,,,,,
2005-12-06 00:00:00,,,,30.26,30.415,30.12,,,,,,
2005-12-07 00:00:00,,,,30.245,30.245,29.765,,,,,,
2005-12-08 00:00:00,,,,29.91,29.98,29.6,,,,,,
2005-12-09 00:00:00,,,,29.75,29.765,29.145,,,,0,5,9
2005-12-12 00:00:00,,,,29.165,29.195,28.625,,,,0,5,10
2005-12-13 00:00:00,,,,28.925,29.065,28.725,,,,0,4,11
2005-12-14 00:00:00,,,,28.56,28.74,28.14,,,,0,3,11
2005-12-15 00:00:00,,,,28.355,28.435,28.065,,,,0,2,11
2005-12-16 00:00:00,,,,28.49,28.5,28.235,,,,0,2,11
2005-12-19 00:00:00,,,,28.485,28.82,28.35,,,,0,2,11
2005-12-20 00:00:00,,,,28.605,28.825,28.385,,,,,,
2005-12-21 00:00:00,,,,28.61,28.77,28.47,,,,,,
2005-12-22 00:00:00,,,,28.545,29.04,28.545,,,,,,
2005-12-23 00:00:00,,,,29.05,29.085,28.855,,,,0,3,11
2005-12-27 00:00:00,,,,29.09,29.28,28.84,,,,,,
2005-12-28 00:00:00,,,,28.88,29.02,28.735,,,,,,
2005-12-29 00:00:00,,,,28.93,29.075,28.87,,,,,,
2005-12-30 00:00:00,,,,28.94,29,28.775,,,,,,
2006-01-03 00:00:00,,,,29.11,29.125,28.435,,,,0,3,11
2006-01-04 00:00:00,,,,29,29.415,28.945,,,,,,
2006-01-05 00:00:00,,,,29.425,29.63,29.36,,,,,,
2006-01-06 00:00:00,,,,29.685,29.85,29.555,,,,0,4,10
2006-01-09 00:00:00,,,,29.875,30.125,29.805,,,,,,
2006-01-10 00:00:00,,,,30,30,29.755,,,,,,
2006-01-11 00:00:00,,,,29.725,29.77,29.49,,,,,,
2006-01-12 00:00:00,,,,29.74,29.74,29.065,,,,,,
2006-01-13 00:00:00,,,,29.36,29.445,29.215,,,,,,
2006-01-16 00:00:00,,,,,,,,,,0,3,11
2006-01-17 00:00:00,,,,29.025,29.225,29.025,,,,0,3,11
2006-01-18 00:00:00,,,,29.055,29.2,28.705,,,,,,
2006-01-19 00:00:00,,,,29.31,29.475,29.035,,,,0,2,11
2006-01-20 00:00:00,,,,29.11,29.11,28.4,,,,0,2,11
2006-01-23 00:00:00,,,,28.495,29.32,28.495,,,,0,3,11
2006-01-24 00:00:00,,,,29.315,29.5,29.25,,,,,,
2006-01-25 00:00:00,,,,29.495,29.735,29.365,,,,,,
2006-01-26 00:00:00,,,,29.64,29.825,29.5,,,,,,
2006-01-27 00:00:00,,,,29.825,29.905,29.59,,,,,,
2006-01-30 00:00:00,,,,29.69,29.715,29.225,,,,,,
2006-01-31 00:00:00,,,,29.7,29.79,29.56,,,,,,
2006-02-01 00:00:00,,,,29.525,29.625,29.415,,,,,,
2006-02-02 00:00:00,,,,29.575,29.585,28.79,,,,,,
2006-02-03 00:00:00,,,,28.995,29.07,28.7,,,,,,
2006-02-06 00:00:00,,,,28.665,28.8,28.475,,,,,,
2006-02-07 00:00:00,,,,28.715,28.825,28.41,,,,,,
2006-02-08 00:00:00,,,,28.385,28.695,28.265,,,,,,
2006-02-09 00:00:00,,,,28.675,29.27,28.675,,,,,,
2006-02-10 00:00:00,,,,28.76,29.105,28.54,,,,,,
2006-02-13 00:00:00,,,,28.875,29.165,28.665,,,,,,
2006-02-14 00:00:00,,,,29.12,30.195,29.065,,,,,,
2006-02-15 00:00:00,,,,29.69,29.945,29.535,,,,,,
2006-02-16 00:00:00,,,,29.695,30.095,29.55,,,,,,
2006-02-17 00:00:00,,,,30.15,30.165,30.005,,,,,,
2006-02-21 00:00:00,,,,30.12,30.13,29.69,,,,,,
2006-02-22 00:00:00,,,,30,30.245,29.64,,,,,,
2006-02-23 00:00:00,,,,29.94,29.94,29.605,,,,,,
2006-02-24 00:00:00,,,,29.765,29.9,29.635,,,,0,4,11
2006-02-27 00:00:00,,,,29.75,30.165,29.75,,,,,,
2006-02-28 00:00:00,,,,30.125,30.595,30,,,,,,
2006-03-01 00:00:00,,,,30.565,31.195,30.49,,,,,,
2006-03-02 00:00:00,,,,30.8,31.125,30.675,,,,,,
2006-03-03 00:00:00,,,,30.875,31.24,30.77,,,,,,
2006-03-06 00:00:00,,,,31.215,31.225,30.96,,,,,,
2006-03-07 00:00:00,,,,30.985,31.145,30.855,,,,,,
2006-03-08 00:00:00,,,,30.89,30.89,30.34,,,,,,
2006-03-09 00:00:00,,,,30.685,30.73,30.37,,,,0,4,10
2006-03-10 00:00:00,,,,30.575,30.75,30.45,,,,0,4,10
2006-03-13 00:00:00,,,,30.785,30.995,30.695,,,,,,
2006-03-14 00:00:00,,,,30.8,31.14,30.8,,,,,,
2006-03-15 00:00:00,,,,31.28,31.73,31.28,,,,,,
2006-03-16 00:00:00,,,,31.7,32.16,31.7,,,,,,
2006-03-17 00:00:00,,,,31.975,32,31.595,,,,,,
2006-03-20 00:00:00,,,,31.635,31.85,31.47,,,,,,
2006-03-21 00:00:00,,,,31.59,31.75,31.415,,,,,,
2006-03-22 00:00:00,,,,31.58,31.695,31.505,,,,,,
2006-03-23 00:00:00,,,,31.575,31.67,31.385,,,,,,
2006-03-24 00:00:00,,,,31.435,31.66,31.275,,,,,,
2006-03-27 00:00:00,,,,31.425,31.45,31.165,,,,,,
2006-03-28 00:00:00,,,,31.24,31.465,31.1,,,,,,
2006-03-29 00:00:00,,,,31.345,31.715,31.26,,,,,,
2006-03-30 00:00:00,,,,31.52,31.765,31.385,,,,,,
2006-03-31 00:00:00,,,,31.535,31.765,31.42,,,,,,
2006-04-03 00:00:00,,,,31.68,32.12,31.68,,,,,,
2006-04-04 00:00:00,,,,31.825,32.27,31.655,,,,,,
2006-04-05 00:00:00,,,,32.16,32.365,31.935,,,,,,
2006-04-06 00:00:00,,,,32.3,32.32,31.97,,,,,,
2006-04-07 00:00:00,,,,32.2,32.335,31.555,,,,0,4,9
2006-04-10 00:00:00,,,,31.665,31.755,31.475,,,,,,
2006-04-11 00:00:00,,,,31.655,31.765,31.29,,,,,,
2006-04-12 00:00:00,,,,31.41,31.75,31.335,,,,,,
2006-04-13 00:00:00,,,,31.65,31.91,31.49,,,,,,
2006-04-17 00:00:00,,,,31.64,31.845,31.565,,,,,,
2006-04-18 00:00:00,,,,31.74,31.83,31.55,,,,,,
2006-04-19 00:00:00,,,,31.385,31.775,31.365,,,,,,
2006-04-20 00:00:00,,,,32.25,32.94,32.1,,,,0,4,9
2006-04-21 00:00:00,,,,33.19,33.59,33.14,,,,0,4,9
2006-04-24 00:00:00,,,,33.11,33.415,32.785,,,,,,
2006-04-25 00:00:00,,,,33.345,33.625,33.19,,,,,,
2006-04-26 00:00:00,,,,33.615,33.845,33.565,,,,,,
2006-04-27 00:00:00,,,,33.455,33.84,33.335,,,,,,
2006-04-28 00:00:00,,,,33.645,33.77,33.42,,,,,,
2006-05-01 00:00:00,,,,33.775,33.975,33.595,,,,,,
2006-05-02 00:00:00,,,,33.595,34.035,33.49,,,,,,
2006-05-03 00:00:00,,,,33.945,34.25,33.875,,,,,,
2006-05-04 00:00:00,,,,34.175,34.44,33.99,,,,,,
2006-05-05 00:00:00,,,,34.085,34.155,33.985,,,,,,
2006-05-08 00:00:00,,,,34.025,34.2,34.025,,,,,,
2006-05-09 00:00:00,,,,34,34.18,33.9,,,,,,
2006-05-10 00:00:00,,,,34.175,34.305,33.965,,,,0,4,9
2006-05-11 00:00:00,,,,34.31,34.38,34.075,,,,,,
2006-05-12 00:00:00,,,,34.175,34.175,33.575,,,,,,
2006-05-15 00:00:00,,,,33.645,33.645,32.985,,,,0,4,8
2006-05-16 00:00:00,,,,33.535,33.635,33.095,,,,,,
2006-05-17 00:00:00,,,,33.285,33.435,32.75,,,,,,
2006-05-18 00:00:00,,,,32.995,33.19,32.425,,,,,,
2006-05-19 00:00:00,,,,32.965,32.965,32.465,,,,,,
2006-05-22 00:00:00,,,,32.675,32.675,31.44,,,,,,
2006-05-23 00:00:00,,,,32.325,32.5,32.13,,,,,,
2006-05-24 00:00:00,,,,32.185,32.37,31.67,,,,,,
2006-05-25 00:00:00,,,,32.44,32.6,32.19,,,,,,
2006-05-26 00:00:00,,,,32.49,32.55,32.235,,,,,,
2006-05-30 00:00:00,,,,32.25,32.295,31.77,,,,,,
2006-05-31 00:00:00,,,,32.09,32.47,31.875,,,,,,
2006-06-01 00:00:00,,,,32.015,32.48,31.815,,,,,,
2006-06-02 00:00:00,,,,32.605,32.69,32.28,,,,,,
2006-06-05 00:00:00,,,,32.48,32.485,31.93,,,,,,
2006-06-06 00:00:00,,,,32.75,32.75,31.945,,,,0,5,7
2006-06-07 00:00:00,,,,32.36,32.38,31.885,,,,,,
2006-06-08 00:00:00,,,,31.69,32.15,30.78,,,,,,
2006-06-09 00:00:00,,,,31.95,32.065,31.605,,,,,,
2006-06-12 00:00:00,,,,31.955,32.25,31.645,,,,,,
2006-06-13 00:00:00,,,,31.475,31.84,31.19,,,,,,
2006-06-14 00:00:00,,,,31.25,31.71,31.22,,,,,,
2006-06-15 00:00:00,,,,31.8,32.635,31.77,,,,,,
2006-06-16 00:00:00,,,,32.41,32.57,32.15,,,,,,
2006-06-19 00:00:00,,,,32.405,32.445,31.4,,,,,,
2006-06-20 00:00:00,,,,31.55,31.765,31.415,,,,,,
2006-06-21 00:00:00,,,,31.56,31.965,31.465,,,,,,
2006-06-22 00:00:00,,,,31.84,32.02,31.56,,,,,,
2006-06-23 00:00:00,,,,31.86,32.51,31.81,,,,0,5,8
2006-06-26 00:00:00,,,,32.225,32.605,32.21,,,,0,5,8
2006-06-27 00:00:00,,,,32.525,32.61,31.72,,,,,,
2006-06-28 00:00:00,,,,31.795,31.885,31.54,,,,,,
2006-06-29 00:00:00,,,,32.15,32.67,32.045,,,,,,
2006-06-30 00:00:00,,,,32.8,33.075,32.625,,,,0,5,8
2006-07-03 00:00:00,,,,33.175,33.245,33.05,,,,,,
2006-07-05 00:00:00,,,,33.035,33.08,32.785,,,,,,
2006-07-06 00:00:00,,,,32.855,33.01,32.455,,,,,,
2006-07-07 00:00:00,,,,32.565,32.855,32.415,,,,0,5,8
2006-07-10 00:00:00,,,,32.725,33.285,32.625,,,,0,5,8
2006-07-11 00:00:00,,,,33.295,33.405,33.185,,,,0,5,8
2006-07-12 00:00:00,,,,33.32,33.45,32.785,,,,,,
2006-07-13 00:00:00,,,,32.69,32.69,31.675,,,,,,
2006-07-14 00:00:00,,,,31.695,31.695,31.17,,,,,,
2006-07-17 00:00:00,,,,31.375,31.835,31.365,,,,,,
2006-07-18 00:00:00,,,,31.66,31.845,31.335,,,,,,
2006-07-19 00:00:00,,,,32.035,32.7,31.95,,,,,,
2006-07-20 00:00:00,,,,32.52,32.76,32.035,,,,0,5,8
2006-07-21 00:00:00,,,,32.145,32.145,30.915,,,,0,5,8
2006-07-24 00:00:00,,,,31.325,31.55,31.13,,,,,,
2006-07-25 00:00:00,,,,31.51,31.72,31.095,,,,,,
2006-07-26 00:00:00,,,,31.605,31.665,31.225,,,,,,
2006-07-27 00:00:00,,,,31.305,31.32,30.54,,,,,,
2006-07-28 00:00:00,,,,30.65,31.085,30.65,,,,,,
2006-07-31 00:00:00,,,,30.9,30.95,30.625,,,,,,
2006-08-01 00:00:00,,,,30.77,30.77,30.355,,,,,,
2006-08-02 00:00:00,,,,30.77,31.225,30.69,,,,,,
2006-08-03 00:00:00,,,,30.685,31.5,30.685,,,,,,
2006-08-04 00:00:00,,,,31.32,31.68,31.225,,,,,,
2006-08-07 00:00:00,,,,31.305,31.495,31.085,,,,,,
2006-08-08 00:00:00,,,,31.27,31.5,30.99,,,,,,
2006-08-09 00:00:00,,,,31.095,31.225,30.855,,,,,,
2006-08-10 00:00:00,,,,30.895,31.025,30.645,,,,,,
2006-08-11 00:00:00,,,,30.8,31.045,30.62,,,,,,
2006-08-14 00:00:00,,,,30.9,31.35,30.87,,,,,,
2006-08-15 00:00:00,,,,31.25,31.65,31.1,,,,0,5,8
2006-08-16 00:00:00,,,,31.9,32.3,31.84,,,,,,
2006-08-17 00:00:00,,,,32.465,32.465,31.845,,,,,,
2006-08-18 00:00:00,,,,32.045,32.13,31.825,,,,,,
2006-08-21 00:00:00,,,,31.755,31.94,31.735,,,,,,
2006-08-22 00:00:00,,,,31.93,31.975,31.575,,,,,,
2006-08-23 00:00:00,,,,31.695,31.695,31.335,,,,,,
2006-08-24 00:00:00,,,,31.625,31.675,31.17,,,,,,
2006-08-25 00:00:00,,,,31.155,31.41,31.155,,,,,,
2006-08-28 00:00:00,,,,31.34,31.535,31.22,,,,,,
2006-08-29 00:00:00,,,,31.535,31.575,31.095,,,,,,
2006-08-30 00:00:00,,,,31.45,31.69,31.445,,,,,,
2006-08-31 00:00:00,,,,31.59,31.845,31.48,,,,0,5,8
2006-09-01 00:00:00,,,,31.85,32.26,31.76,,,,,,
2006-09-05 00:00:00,,,,32.165,32.17,31.845,,,,,,
2006-09-06 00:00:00,,,,31.975,32.1,31.83,,,,,,
2006-09-07 00:00:00,,,,31.86,32.18,31.75,,,,,,
2006-09-08 00:00:00,,,,31.98,32.5,31.96,,,,,,
2006-09-11 00:00:00,,,,32.375,32.44,32.175,,,,,,
2006-09-12 00:00:00,,,,32.375,32.955,32.31,,,,,,
2006-09-13 00:00:00,,,,32.92,33.43,32.77,,,,,,
2006-09-14 00:00:00,,,,32.95,33.13,32.71,,,,,,
2006-09-15 00:00:00,,,,33.2,33.375,32.95,,,,,,
2006-09-18 00:00:00,,,,33.095,33.34,32.815,,,,,,
2006-09-19 00:00:00,,,,33.04,33.16,32.885,,,,0,5,8
2006-09-20 00:00:00,,,,33.33,33.775,33.235,,,,,,
2006-09-21 00:00:00,,,,33.93,33.93,33.175,,,,,,
2006-09-22 00:00:00,,,,33.24,33.31,32.955,,,,,,
2006-09-25 00:00:00,,,,33.1,33.46,33.02,,,,,,
2006-09-26 00:00:00,,,,33.405,33.94,33.405,,,,,,
2006-09-27 00:00:00,,,,33.765,33.885,33.6,,,,,,
2006-09-28 00:00:00,,,,33.725,34.11,33.595,,,,0,5,8
2006-09-29 00:00:00,,,,33.615,34.015,33.535,,,,,,
2006-10-02 00:00:00,,,,33.655,33.66,33.205,,,,,,
2006-10-03 00:00:00,,,,33.23,33.495,33.1,,,,,,
2006-10-04 00:00:00,,,,33.2,33.665,33.105,,,,0,4,8
2006-10-05 00:00:00,,,,33.5,33.75,33.455,,,,,,
2006-10-06 00:00:00,,,,33.5,33.87,33.465,,,,,,
2006-10-09 00:00:00,,,,33.725,34.07,33.725,,,,,,
2006-10-10 00:00:00,,,,33.885,33.94,33.43,,,,,,
2006-10-11 00:00:00,,,,33.805,34.175,33.675,,,,,,
2006-10-12 00:00:00,,,,34.225,34.41,34.15,,,,,,
2006-10-13 00:00:00,,,,34.33,34.39,34.18,,,,,,
2006-10-16 00:00:00,,,,34.14,34.735,34.14,,,,0,4,7
2006-10-17 00:00:00,,,,34.565,34.565,34.17,,,,,,
2006-10-18 00:00:00,,,,34.7,34.845,34.145,,,,,,
2006-10-19 00:00:00,,,,34,34,33.635,,,,,,
2006-10-20 00:00:00,,,,34.02,34.175,33.7,,,,0,4,7
2006-10-23 00:00:00,,,,34.17,34.665,34.17,,,,,,
2006-10-24 00:00:00,,,,34.6,34.9,34.325,,,,,,
2006-10-25 00:00:00,,,,34.535,34.55,34.125,,,,,,
2006-10-26 00:00:00,,,,34.565,34.565,34.13,,,,,,
2006-10-27 00:00:00,,,,34.25,34.25,33.945,,,,,,
2006-10-30 00:00:00,,,,34.09,34.595,34.025,,,,,,
2006-10-31 00:00:00,,,,34.375,34.645,34.12,,,,,,
2006-11-01 00:00:00,,,,34.135,34.545,33.905,,,,,,
2006-11-02 00:00:00,,,,33.66,34.145,33.66,,,,,,
2006-11-03 00:00:00,,,,33.88,34.155,33.61,,,,,,
2006-11-06 00:00:00,,,,33.725,34.11,33.715,,,,,,
2006-11-07 00:00:00,,,,34.06,34.25,33.955,,,,,,
2006-11-08 00:00:00,,,,33.76,33.94,33.6,,,,,,
2006-11-09 00:00:00,,,,33.635,33.825,33.385,,,,,,
2006-11-10 00:00:00,,,,33.625,33.795,33.46,,,,,,
2006-11-13 00:00:00,,,,33.705,34.155,33.65,,,,,,
2006-11-14 00:00:00,,,,34.1,34.215,33.7,,,,,,
2006-11-15 00:00:00,,,,34.19,34.43,34.065,,,,,,
2006-11-16 00:00:00,,,,34.485,34.66,34.235,,,,,,
2006-11-17 00:00:00,,,,33.875,33.875,32.455,,,,0,3,8
2006-11-20 00:00:00,,,,32.63,32.775,32.265,,,,0,3,8
2006-11-21 00:00:00,,,,32.335,32.6,32.135,,,,,,
2006-11-22 00:00:00,,,,32.41,32.755,32.41,,,,,,
2006-11-24 00:00:00,,,,32.375,32.535,32.375,,,,,,
2006-11-27 00:00:00,,,,32.35,32.385,31.885,,,,,,
2006-11-28 00:00:00,,,,32.04,32.22,31.895,,,,,,
2006-11-29 00:00:00,,,,32.2,32.22,32.035,,,,,,
2006-11-30 00:00:00,,,,32.15,32.31,32.05,,,,,,
2006-12-01 00:00:00,,,,32.345,32.345,31.97,,,,,,
2006-12-04 00:00:00,,,,32.2,32.76,32.2,,,,,,
2006-12-05 00:00:00,,,,32.775,33.345,32.775,,,,,,
2006-12-06 00:00:00,,,,33.055,33.25,32.91,,,,,,
2006-12-07 00:00:00,,,,32.99,33.125,32.85,,,,,,
2006-12-08 00:00:00,,,,32.75,33.025,32.705,,,,,,
2006-12-11 00:00:00,,,,32.89,32.915,32.625,,,,,,
2006-12-12 00:00:00,,,,32.67,32.675,32.305,,,,,,
2006-12-13 00:00:00,,,,32.615,32.675,32.355,,,,,,
2006-12-14 00:00:00,,,,32.46,32.89,32.4,,,,0,3,7
2006-12-15 00:00:00,,,,32.875,33.055,32.78,,,,,,
2006-12-18 00:00:00,,,,33.15,33.15,32.845,,,,,,
2006-12-19 00:00:00,,,,32.875,33.1,32.74,,,,,,
2006-12-20 00:00:00,,,,33.07,33.07,32.74,,,,,,
2006-12-21 00:00:00,,,,32.85,32.85,32.395,,,,0,3,7
2006-12-22 00:00:00,,,,31.95,32.2,31.515,,,,,,
2006-12-26 00:00:00,,,,32.13,32.5,32.045,,,,,,
2006-12-27 00:00:00,,,,32.475,32.545,32.335,,,,,,
2006-12-28 00:00:00,,,,32.4,32.6,32.365,,,,,,
2006-12-29 00:00:00,,,,32.37,32.4,32.07,,,,,,
2007-01-03 00:00:00,,,,32.1,32.53,32.025,,,,,,
2007-01-04 00:00:00,,,,32.325,32.325,32.005,,,,0,3,7
2007-01-05 00:00:00,,,,32.12,32.39,32.015,,,,,,
2007-01-08 00:00:00,,,,32.325,32.325,32.055,,,,,,
2007-01-09 00:00:00,,,,32.39,32.735,32.225,,,,,,
2007-01-10 00:00:00,,,,32.605,32.71,32.31,,,,,,
2007-01-11 00:00:00,,,,32.84,33.285,32.8,,,,,,
2007-01-12 00:00:00,,,,33.125,33.665,33.1,,,,,,
2007-01-15 00:00:00,,,,,,,,,,0,2,7
2007-01-16 00:00:00,,,,33.535,33.78,33.535,,,,,,
2007-01-17 00:00:00,,,,33.65,33.935,33.435,,,,0,2,6
2007-01-18 00:00:00,,,,33.825,33.83,32.9,,,,0,2,6
2007-01-19 00:00:00,,,,33.255,33.35,32.795,,,,0,2,6
2007-01-22 00:00:00,,,,32.945,33.04,32.62,,,,0,2,7
2007-01-23 00:00:00,,,,32.74,33.05,32.675,,,,,,
2007-01-24 00:00:00,,,,33.015,33.245,32.88,,,,,,
2007-01-25 00:00:00,,,,33.225,33.24,32.755,,,,,,
2007-01-26 00:00:00,,,,32.735,32.74,32.28,,,,,,
2007-01-29 00:00:00,,,,32.605,32.85,32.485,,,,,,
2007-01-30 00:00:00,,,,32.81,32.835,32.525,,,,,,
2007-01-31 00:00:00,,,,33.08,33.255,32.905,,,,,,
2007-02-01 00:00:00,,,,33.11,34.09,33.105,,,,,,
2007-02-02 00:00:00,,,,33.925,34.015,33.605,,,,,,
2007-02-05 00:00:00,,,,33.69,33.75,33.395,,,,,,
2007-02-06 00:00:00,,,,33.535,34.01,33.535,,,,,,
2007-02-07 00:00:00,,,,34,34.23,34,,,,,,
2007-02-08 00:00:00,,,,34.035,34.155,33.78,,,,,,
2007-02-09 00:00:00,,,,33.925,34.205,33.91,,,,,,
2007-02-12 00:00:00,,,,34.245,34.25,33.95,,,,,,
2007-02-13 00:00:00,,,,34.185,34.54,34.15,,,,,,
2007-02-14 00:00:00,,,,34.23,34.4,34.035,,,,,,
2007-02-15 00:00:00,,,,34.2,34.4,34.2,,,,,,
2007-02-16 00:00:00,,,,34.395,34.5,34.04,,,,,,
2007-02-20 00:00:00,,,,33.835,34.225,33.48,,,,,,
2007-02-21 00:00:00,,,,34.04,34.175,33.845,,,,,,
2007-02-22 00:00:00,,,,34.25,34.265,33.665,,,,,,
2007-02-23 00:00:00,,,,33.72,33.925,33.46,,,,,,
2007-02-26 00:00:00,,,,34.1,34.23,33.83,,,,0,2,7
2007-02-27 00:00:00,,,,33.785,33.785,32.42,,,,,,
2007-02-28 00:00:00,,,,33.045,33.56,33,,,,0,2,7
2007-03-01 00:00:00,,,,32.845,33.23,32.35,,,,,,
2007-03-02 00:00:00,,,,32.885,33.05,32.6,,,,,,
2007-03-05 00:00:00,,,,32.745,32.975,32.445,,,,,,
2007-03-06 00:00:00,,,,32.715,33.115,32.64,,,,,,
2007-03-07 00:00:00,,,,32.82,32.995,32.675,,,,,,
2007-03-08 00:00:00,,,,32.875,33.405,32.83,,,,,,
2007-03-09 00:00:00,,,,33.45,34.055,33.435,,,,,,
2007-03-12 00:00:00,,,,33.9,34.525,33.9,,,,,,
2007-03-13 00:00:00,,,,34.4,34.795,33.815,,,,0,3,6
2007-03-14 00:00:00,,,,33.98,34.22,33.445,,,,0,3,6
2007-03-15 00:00:00,,,,34.155,34.655,34.14,,,,,,
2007-03-16 00:00:00,,,,34.74,34.75,34.17,,,,0,3,6
2007-03-19 00:00:00,,,,34.625,35.195,34.44,,,,,,
2007-03-20 00:00:00,,,,35.485,35.73,35.38,,,,0,4,5
2007-03-21 00:00:00,,,,35.435,36.13,35.34,,,,,,
2007-03-22 00:00:00,,,,36.075,36.105,35.86,,,,,,
2007-03-23 00:00:00,,,,35.81,36.195,35.755,,,,,,
2007-03-26 00:00:00,,,,36.115,36.145,35.515,,,,,,
2007-03-27 00:00:00,,,,35.875,36,35.65,,,,,,
2007-03-28 00:00:00,,,,35.74,35.74,35.215,,,,,,
2007-03-29 00:00:00,,,,35.615,35.625,34.98,,,,,,
2007-03-30 00:00:00,,,,35.27,35.625,34.86,,,,0,4,4
2007-04-02 00:00:00,,,,35.155,35.36,34.97,,,,,,
2007-04-03 00:00:00,,,,35.42,35.73,35.21,,,,,,
2007-04-04 00:00:00,,,,35.6,35.75,35.475,,,,,,
2007-04-05 00:00:00,,,,35.515,35.605,35.41,,,,,,
2007-04-09 00:00:00,,,,35.885,36.25,35.735,,,,0,4,3
2007-04-10 00:00:00,,,,35.805,35.81,35.3,,,,,,
2007-04-11 00:00:00,,,,35.55,35.625,35.165,,,,,,
2007-04-12 00:00:00,,,,35.31,35.68,35.095,,,,,,
2007-04-13 00:00:00,,,,35.675,35.675,35.365,,,,,,
2007-04-16 00:00:00,,,,35.64,36.095,35.575,,,,0,4,4
2007-04-17 00:00:00,,,,35.995,36,35.38,,,,,,
2007-04-18 00:00:00,,,,35.39,35.56,35.14,,,,,,
2007-04-19 00:00:00,,,,35.485,37.945,35.475,,,,0,5,4
2007-04-20 00:00:00,,,,37.75,37.77,37.36,,,,0,5,4
2007-04-23 00:00:00,,,,37.455,37.725,37.38,,,,,,
2007-04-24 00:00:00,,,,37.41,37.55,36.92,,,,,,
2007-04-25 00:00:00,,,,37.15,37.535,37.15,,,,,,
2007-04-26 00:00:00,,,,37.305,37.465,37.05,,,,,,
2007-04-27 00:00:00,,,,37.205,37.38,36.795,,,,,,
2007-04-30 00:00:00,,,,37.36,37.36,36.79,,,,,,
2007-05-01 00:00:00,,,,36.85,36.85,36.44,,,,,,
2007-05-02 00:00:00,,,,36.58,37.225,36.58,,,,0,5,4
2007-05-03 00:00:00,,,,36.975,37.52,36.975,,,,,,
2007-05-04 00:00:00,,,,37.495,37.555,37.135,,,,,,
2007-05-07 00:00:00,,,,37.5,37.935,37.425,,,,0,5,4
2007-05-08 00:00:00,,,,37.515,37.59,37.215,,,,,,
2007-05-09 00:00:00,,,,37.375,37.81,37.345,,,,,,
2007-05-10 00:00:00,,,,37.535,37.675,37.055,,,,,,
2007-05-11 00:00:00,,,,37.265,37.43,37.05,,,,,,
2007-05-14 00:00:00,,,,37.24,37.59,37.16,,,,,,
2007-05-15 00:00:00,,,,37.39,37.75,37.24,,,,,,
2007-05-16 00:00:00,,,,37.4,37.56,37.145,,,,,,
2007-05-17 00:00:00,,,,37.455,37.85,37.45,,,,,,
2007-05-18 00:00:00,,,,38,39.4,37.8,,,,0,5,4
2007-05-21 00:00:00,,,,38.54,39.16,38.305,,,,0,5,4
2007-05-22 00:00:00,,,,38.815,39.035,38.695,,,,,,
2007-05-23 00:00:00,,,,38.94,39.3,38.64,,,,,,
2007-05-24 00:00:00,,,,38.435,38.615,38.135,,,,,,
2007-05-25 00:00:00,,,,38.33,38.615,38.28,,,,,,
2007-05-29 00:00:00,,,,38.5,38.6,38.05,,,,,,
2007-05-30 00:00:00,,,,38.03,38.51,37.75,,,,,,
2007-05-31 00:00:00,,,,38.455,38.54,38.09,,,,,,
2007-06-01 00:00:00,,,,38.29,38.5,37.97,,,,,,
2007-06-04 00:00:00,,,,37.99,38.205,37.765,,,,,,
2007-06-05 00:00:00,,,,37.925,38.245,37.88,,,,,,
2007-06-06 00:00:00,,,,38.18,38.18,37.755,,,,,,
2007-06-07 00:00:00,,,,37.65,37.765,36.895,,,,,,
2007-06-08 00:00:00,,,,36.9,37.16,36.58,,,,,,
2007-06-11 00:00:00,,,,36.975,37.205,36.7,,,,,,
2007-06-12 00:00:00,,,,36.875,37.13,36.47,,,,,,
2007-06-13 00:00:00,,,,36.765,37.115,36.55,,,,,,
2007-06-14 00:00:00,,,,37.04,37.45,37.04,,,,,,
2007-06-15 00:00:00,,,,37.75,37.915,37.415,,,,,,
2007-06-18 00:00:00,,,,37.515,37.78,37.35,,,,,,
2007-06-19 00:00:00,,,,37.175,37.435,37.01,,,,,,
2007-06-20 00:00:00,,,,37.505,37.775,37.105,,,,,,
2007-06-21 00:00:00,,,,37.095,37.44,36.775,,,,,,
2007-06-22 00:00:00,,,,37.09,37.39,36.72,,,,,,
2007-06-25 00:00:00,,,,36.835,37.23,36.7,,,,,,
2007-06-26 00:00:00,,,,37.175,37.44,36.85,,,,,,
2007-06-27 00:00:00,,,,36.64,37.695,36.6,,,,0,5,4
2007-06-28 00:00:00,,,,37.465,37.5,37.155,,,,,,
2007-06-29 00:00:00,,,,37.42,38.495,37.385,,,,0,6,4
2007-07-02 00:00:00,,,,38.25,38.575,38.175,,,,,,
2007-07-03 00:00:00,,,,38.425,38.495,38.255,,,,,,
2007-07-05 00:00:00,,,,38.265,38.885,38.265,,,,,,
2007-07-06 00:00:00,,,,38.5,38.625,38.41,,,,,,
2007-07-09 00:00:00,,,,38.62,38.945,38.52,,,,,,
2007-07-10 00:00:00,,,,38.675,38.83,38.35,,,,,,
2007-07-11 00:00:00,,,,38.355,38.695,38.305,,,,,,
2007-07-12 00:00:00,,,,38.565,39.17,38.565,,,,0,7,4
2007-07-13 00:00:00,,,,38.97,39.5,38.905,,,,,,
2007-07-16 00:00:00,,,,39.25,39.745,39.155,,,,,,
2007-07-17 00:00:00,,,,39.635,40.305,39.61,,,,,,
2007-07-18 00:00:00,,,,39.81,40.295,39.355,,,,0,7,4
2007-07-19 00:00:00,,,,38.825,40.71,38.815,,,,0,8,3
2007-07-20 00:00:00,,,,40.625,40.73,39.97,,,,0,10,2
2007-07-23 00:00:00,,,,40.385,41.21,40.15,,,,,,
2007-07-24 00:00:00,,,,40.585,41.125,40.315,,,,,,
2007-07-25 00:00:00,,,,40.825,40.85,39.71,,,,,,
2007-07-26 00:00:00,,,,39.735,39.875,38.305,,,,,,
2007-07-27 00:00:00,,,,38.825,39.08,37.775,,,,,,
2007-07-30 00:00:00,,,,38,38.805,37.85,,,,,,
2007-07-31 00:00:00,,,,38.82,39.145,38.11,,,,,,
2007-08-01 00:00:00,,,,38.225,39.55,37.81,,,,,,
2007-08-02 00:00:00,,,,39.515,39.855,39.05,,,,,,
2007-08-03 00:00:00,,,,39.395,39.575,38.14,,,,,,
2007-08-06 00:00:00,,,,38.44,39.03,37.635,,,,,,
2007-08-07 00:00:00,,,,38.63,39.185,38.155,,,,,,
2007-08-08 00:00:00,,,,38.795,38.95,37.965,,,,,,
2007-08-09 00:00:00,,,,37.365,37.62,36.02,,,,,,
2007-08-10 00:00:00,,,,35.85,37.54,35.515,,,,,,
2007-08-13 00:00:00,,,,37.5,37.8,37.025,,,,,,
2007-08-14 00:00:00,,,,37.825,37.925,36.14,,,,,,
2007-08-15 00:00:00,,,,36,36.36,35.22,,,,,,
2007-08-16 00:00:00,,,,34.525,36,33.905,,,,,,
2007-08-17 00:00:00,,,,36.925,37,35.655,,,,,,
2007-08-20 00:00:00,,,,36.3,36.75,36.15,,,,,,
2007-08-21 00:00:00,,,,36.925,36.935,36.255,,,,,,
2007-08-22 00:00:00,,,,36.69,37.125,36.47,,,,,,
2007-08-23 00:00:00,,,,36.675,36.815,35.935,,,,,,
2007-08-24 00:00:00,,,,36.25,37.025,36.195,,,,,,
2007-08-27 00:00:00,,,,36.86,36.98,36.565,,,,,,
2007-08-28 00:00:00,,,,36.475,36.55,35.605,,,,,,
2007-08-29 00:00:00,,,,35.97,36.74,35.86,,,,,,
2007-08-30 00:00:00,,,,36.3,36.945,36.285,,,,,,
2007-08-31 00:00:00,,,,37.2,37.375,36.505,,,,,,
2007-09-04 00:00:00,,,,36.825,37,36.38,,,,,,
2007-09-05 00:00:00,,,,36.445,36.61,36.015,,,,,,
2007-09-06 00:00:00,,,,36.675,37.09,36.375,,,,,,
2007-09-07 00:00:00,,,,36.475,36.475,35.44,,,,,,
2007-09-10 00:00:00,,,,35.68,35.955,35.125,,,,0,10,2
2007-09-11 00:00:00,,,,35.925,36.305,35.81,,,,,,
2007-09-12 00:00:00,,,,36.225,37.475,36.205,,,,0,10,2
2007-09-13 00:00:00,,,,37.68,37.83,37.315,,,,,,
2007-09-14 00:00:00,,,,37.41,37.51,36.705,,,,0,10,2
2007-09-17 00:00:00,,,,36.85,37.19,36.735,,,,,,
2007-09-18 00:00:00,,,,37.05,37.85,36.65,,,,0,10,2
2007-09-19 00:00:00,,,,38.245,39,38.125,,,,0,10,2
2007-09-20 00:00:00,,,,38.605,38.65,37.545,,,,,,
2007-09-21 00:00:00,,,,37.845,38.145,37.5,,,,,,
2007-09-24 00:00:00,,,,37.65,38.015,37.295,,,,,,
2007-09-25 00:00:00,,,,37.2,37.645,37.005,,,,,,
2007-09-26 00:00:00,,,,37.735,38.105,37.515,,,,0,9,2
2007-09-27 00:00:00,,,,37.9,38.395,37.585,,,,,,
2007-09-28 00:00:00,,,,37.905,38.08,37.64,,,,,,
2007-10-01 00:00:00,,,,37.77,38.645,37.77,,,,0,9,2
2007-10-02 00:00:00,,,,38.24,38.3,37.75,,,,,,
2007-10-03 00:00:00,,,,37.9,38.355,37.855,,,,,,
2007-10-04 00:00:00,,,,38.205,38.71,37.975,,,,,,
2007-10-05 00:00:00,,,,38.85,39.42,38.62,,,,,,
2007-10-08 00:00:00,,,,39.05,39.25,38.51,,,,,,
2007-10-09 00:00:00,,,,38.755,39.23,38.625,,,,,,
2007-10-10 00:00:00,,,,39.08,39.425,38.8,,,,,,
2007-10-11 00:00:00,,,,39.32,39.88,38.905,,,,,,
2007-10-12 00:00:00,,,,39.25,39.56,39.01,,,,,,
2007-10-15 00:00:00,,,,39.63,39.975,38.685,,,,,,
2007-10-16 00:00:00,,,,39.35,39.5,38.755,,,,0,9,2
2007-10-17 00:00:00,,,,39.5,39.75,38.515,,,,,,
2007-10-18 00:00:00,,,,38.4,38.75,37.595,,,,0,9,2
2007-10-19 00:00:00,,,,37.555,37.79,37.075,,,,0,9,2
2007-10-22 00:00:00,,,,36.72,37.405,36.63,,,,,,
2007-10-23 00:00:00,,,,37.55,37.78,37.005,,,,,,
2007-10-24 00:00:00,,,,37.245,37.385,36.9,,,,,,
2007-10-25 00:00:00,,,,37.32,37.555,36.58,,,,,,
2007-10-26 00:00:00,,,,37.07,37.07,36.66,,,,,,
2007-10-29 00:00:00,,,,37,37.135,36.825,,,,,,
2007-10-30 00:00:00,,,,36.935,37.01,36.33,,,,,,
2007-10-31 00:00:00,,,,36.625,37.37,36.425,,,,,,
2007-11-01 00:00:00,,,,36.85,37.225,36.4,,,,,,
2007-11-02 00:00:00,,,,36.575,36.895,36.19,,,,,,
2007-11-05 00:00:00,,,,36.37,36.59,35.945,,,,,,
2007-11-06 00:00:00,,,,36.45,36.865,35.99,,,,,,
2007-11-07 00:00:00,,,,36.21,36.44,35.24,,,,,,
2007-11-08 00:00:00,,,,35.4,35.955,34.95,,,,,,
2007-11-09 00:00:00,,,,35.315,35.45,34.605,,,,0,9,3
2007-11-12 00:00:00,,,,34.505,34.95,34.245,,,,,,
2007-11-13 00:00:00,,,,34.53,34.75,34.1,,,,,,
2007-11-14 00:00:00,,,,34.515,34.6,34.04,,,,,,
2007-11-15 00:00:00,,,,34.055,34.45,33.425,,,,,,
2007-11-16 00:00:00,,,,33.58,33.72,33.02,,,,,,
2007-11-19 00:00:00,,,,33.315,33.42,32.67,,,,,,
2007-11-20 00:00:00,,,,32.76,33.435,32.615,,,,,,
2007-11-21 00:00:00,,,,32.96,33.135,32.635,,,,,,
2007-11-23 00:00:00,,,,32.985,33.33,32.77,,,,,,
2007-11-26 00:00:00,,,,33.32,33.975,32.935,,,,,,
2007-11-27 00:00:00,,,,33.225,33.41,32.465,,,,,,
2007-11-28 00:00:00,,,,33.34,34.32,33.26,,,,0,9,3
2007-11-29 00:00:00,,,,34.23,34.32,33.905,,,,0,9,3
2007-11-30 00:00:00,,,,34.48,34.525,33.825,,,,0,9,3
2007-12-03 00:00:00,,,,34.27,34.525,34.045,,,,0,9,3
2007-12-04 00:00:00,,,,33.955,34.325,33.85,,,,0,9,3
2007-12-05 00:00:00,,,,34.385,34.4,34.15,,,,,,
2007-12-06 00:00:00,,,,34.25,34.645,34.19,,,,,,
2007-12-07 00:00:00,,,,34.775,35.27,34.565,,,,,,
2007-12-10 00:00:00,,,,35.405,35.535,35.105,,,,,,
2007-12-11 00:00:00,,,,35.475,35.48,34.22,,,,,,
2007-12-12 00:00:00,,,,35.2,35.255,34.375,,,,,,
2007-12-13 00:00:00,,,,34.755,35.305,34.58,,,,,,
2007-12-14 00:00:00,,,,34.9,35.22,34.7,,,,,,
2007-12-17 00:00:00,,,,34.555,34.735,33.955,,,,,,
2007-12-18 00:00:00,,,,34.4,34.835,33.985,,,,,,
2007-12-19 00:00:00,,,,34.755,34.91,34.16,,,,,,
2007-12-20 00:00:00,,,,34.55,34.985,34.305,,,,,,
2007-12-21 00:00:00,,,,35.18,35.91,34.82,,,,,,
2007-12-24 00:00:00,,,,35.975,36.105,35.755,,,,,,
2007-12-26 00:00:00,,,,35.785,35.975,35.45,,,,,,
2007-12-27 00:00:00,,,,34.9,35.49,34.695,,,,0,9,3
2007-12-28 00:00:00,,,,35.665,35.735,35.035,,,,0,9,3
2007-12-31 00:00:00,,,,35.225,35.39,35.045,,,,,,
2008-01-02 00:00:00,,,,35.175,35.36,34.055,,,,,,
2008-01-03 00:00:00,,,,34.475,34.5,33.755,,,,,,
2008-01-04 00:00:00,,,,33.7,33.75,33.24,,,,,,
2008-01-07 00:00:00,,,,33.73,33.86,32.855,,,,0,9,3
2008-01-08 00:00:00,,,,33.655,34,32.575,,,,0,9,3
2008-01-09 00:00:00,,,,32.025,32.735,31.75,,,,0,8,4
2008-01-10 00:00:00,,,,32.335,32.83,31.75,,,,0,8,4
2008-01-11 00:00:00,,,,32.155,32.315,31.56,,,,,,
2008-01-14 00:00:00,,,,31.8,32.43,31.8,,,,,,
2008-01-15 00:00:00,,,,31.8,32.05,31.125,,,,,,
2008-01-16 00:00:00,,,,31.01,31.505,30.62,,,,0,8,4
2008-01-17 00:00:00,,,,31.945,33.035,31.195,,,,0,8,4
2008-01-18 00:00:00,,,,31.235,31.85,30.355,,,,0,8,4
2008-01-22 00:00:00,,,,29.88,31.255,29.61,,,,0,8,4
2008-01-23 00:00:00,,,,29.94,32,29.665,,,,,,
2008-01-24 00:00:00,,,,31.96,32.62,31.58,,,,,,
2008-01-25 00:00:00,,,,32.445,32.875,31.35,,,,,,
2008-01-28 00:00:00,,,,31.66,32.275,31.24,,,,,,
2008-01-29 00:00:00,,,,32.38,32.835,32.155,,,,,,
2008-01-30 00:00:00,,,,32.195,32.95,31.81,,,,,,
2008-01-31 00:00:00,,,,31.8,33.335,31.515,,,,,,
2008-02-01 00:00:00,,,,33.25,33.64,32.98,,,,,,
2008-02-04 00:00:00,,,,33.875,33.91,33.13,,,,,,
2008-02-05 00:00:00,,,,32.5,32.835,32.17,,,,,,
2008-02-06 00:00:00,,,,32.54,32.995,32.185,,,,,,
2008-02-07 00:00:00,,,,32.205,32.51,31.855,,,,,,
2008-02-08 00:00:00,,,,31.975,32.355,31.71,,,,,,
2008-02-11 00:00:00,,,,32.065,32.555,31.945,,,,,,
2008-02-12 00:00:00,,,,32.31,32.92,32.16,,,,0,8,4
2008-02-13 00:00:00,,,,32.945,33.185,32.51,,,,,,
2008-02-14 00:00:00,,,,32.4,32.755,32.005,,,,,,
2008-02-15 00:00:00,,,,32.01,32.13,31.445,,,,,,
2008-02-19 00:00:00,,,,32.355,32.785,32.34,,,,0,7,5
2008-02-20 00:00:00,,,,31.54,32.035,31.26,,,,,,
2008-02-21 00:00:00,,,,32.04,32.225,31.775,,,,,,
2008-02-22 00:00:00,,,,32.195,32.22,31.455,,,,0,7,5
2008-02-25 00:00:00,,,,32.39,33,32.09,,,,,,
2008-02-26 00:00:00,,,,32.885,33.21,32.57,,,,0,7,5
2008-02-27 00:00:00,,,,32.74,33.05,32.475,,,,,,
2008-02-28 00:00:00,,,,31.935,32.32,31.55,,,,,,
2008-02-29 00:00:00,,,,31.685,31.685,30.805,,,,,,
2008-03-03 00:00:00,,,,31,31.345,30.845,,,,,,
2008-03-04 00:00:00,,,,31,31.175,30.24,,,,,,
2008-03-05 00:00:00,,,,30.735,31.115,30.61,,,,,,
2008-03-06 00:00:00,,,,30.675,30.875,30.295,,,,,,
2008-03-07 00:00:00,,,,29.775,30,29.115,,,,0,6,6
2008-03-10 00:00:00,,,,29.185,29.265,28.63,,,,,,
2008-03-11 00:00:00,,,,29.36,29.865,28.885,,,,,,
2008-03-12 00:00:00,,,,29.72,30.405,29.63,,,,,,
2008-03-13 00:00:00,,,,29.52,30.445,29.15,,,,,,
2008-03-14 00:00:00,,,,30.385,30.435,29.025,,,,,,
2008-03-17 00:00:00,,,,29.015,29.385,28.62,,,,0,6,6
2008-03-18 00:00:00,,,,29.495,29.985,29.22,,,,,,
2008-03-19 00:00:00,,,,30.265,30.57,29.2,,,,,,
2008-03-20 00:00:00,,,,29.235,29.745,29.07,,,,,,
2008-03-24 00:00:00,,,,29.45,30.89,29.305,,,,,,
2008-03-25 00:00:00,,,,30.325,30.715,30.15,,,,,,
2008-03-26 00:00:00,,,,30.385,30.535,29.755,,,,,,
2008-03-27 00:00:00,,,,30.075,30.25,29.45,,,,0,6,6
2008-03-28 00:00:00,,,,29.97,29.97,29.375,,,,,,
2008-03-31 00:00:00,,,,29.795,30.36,29.73,,,,,,
2008-04-01 00:00:00,,,,30.475,31.27,30.08,,,,,,
2008-04-02 00:00:00,,,,31.49,32.1,31.285,,,,,,
2008-04-03 00:00:00,,,,31.39,32.205,31.17,,,,,,
2008-04-04 00:00:00,,,,31.8,32.605,31.64,,,,,,
2008-04-07 00:00:00,,,,32.675,32.68,31.79,,,,0,6,7
2008-04-08 00:00:00,,,,31.615,31.975,31.555,,,,0,6,7
2008-04-09 00:00:00,,,,32.065,32.19,31.52,,,,,,
2008-04-10 00:00:00,,,,31.575,32.06,31.36,,,,,,
2008-04-11 00:00:00,,,,31.45,32.035,31.415,,,,,,
2008-04-14 00:00:00,,,,31.655,31.835,31.32,,,,0,6,7
2008-04-15 00:00:00,,,,31.465,31.75,31.26,,,,,,
2008-04-16 00:00:00,,,,31.72,32.96,31.72,,,,,,
2008-04-17 00:00:00,,,,33.01,33.01,32.055,,,,0,6,7
2008-04-18 00:00:00,,,,32.985,33.25,32.62,,,,,,
2008-04-21 00:00:00,,,,32.86,33.01,32.365,,,,,,
2008-04-22 00:00:00,,,,32.5,32.65,31.87,,,,,,
2008-04-23 00:00:00,,,,32.56,32.63,31.46,,,,,,
2008-04-24 00:00:00,,,,31.82,32.015,31.25,,,,,,
2008-04-25 00:00:00,,,,32.075,32.465,31.79,,,,,,
2008-04-28 00:00:00,,,,32.34,32.345,31.49,,,,,,
2008-04-29 00:00:00,,,,31.815,31.815,31.065,,,,,,
2008-04-30 00:00:00,,,,31.29,31.54,30.52,,,,,,
2008-05-01 00:00:00,,,,30.555,31.37,30.215,,,,,,
2008-05-02 00:00:00,,,,31.44,31.79,31.16,,,,,,
2008-05-05 00:00:00,,,,31.33,31.675,31.06,,,,,,
2008-05-06 00:00:00,,,,31.315,31.8,31.15,,,,,,
2008-05-07 00:00:00,,,,31.55,32.035,31.355,,,,,,
2008-05-08 00:00:00,,,,31.285,31.625,31.14,,,,0,6,7
2008-05-09 00:00:00,,,,31.085,31.22,30.865,,,,0,6,7
2008-05-12 00:00:00,,,,31.235,31.515,30.65,,,,,,
2008-05-13 00:00:00,,,,31.56,31.805,31.49,,,,,,
2008-05-14 00:00:00,,,,31.945,32.685,31.81,,,,,,
2008-05-15 00:00:00,,,,32.375,32.9,32.17,,,,,,
2008-05-16 00:00:00,,,,32.98,33.155,32.775,,,,,,
2008-05-19 00:00:00,,,,33.02,33.09,32.215,,,,0,6,7
2008-05-20 00:00:00,,,,32.045,32.465,32.045,,,,,,
2008-05-21 00:00:00,,,,32.365,32.42,31.57,,,,,,
2008-05-22 00:00:00,,,,31.86,32.145,31.625,,,,,,
2008-05-23 00:00:00,,,,31.85,31.85,31.145,,,,,,
2008-05-27 00:00:00,,,,31.32,31.335,30.835,,,,,,
2008-05-28 00:00:00,,,,31.29,31.68,31.01,,,,,,
2008-05-29 00:00:00,,,,31.545,31.925,31.245,,,,,,
2008-05-30 00:00:00,,,,31.875,31.875,31.365,,,,,,
2008-06-02 00:00:00,,,,31.4,31.465,31.045,,,,,,
2008-06-03 00:00:00,,,,30.8,31.09,30.435,,,,,,
2008-06-04 00:00:00,,,,30.715,31.36,30.64,,,,0,6,7
2008-06-05 00:00:00,,,,31.045,31.555,30.985,,,,,,
2008-06-06 00:00:00,,,,31.27,31.27,30.595,,,,,,
2008-06-09 00:00:00,,,,30.74,30.82,30.08,,,,0,6,7
2008-06-10 00:00:00,,,,30.04,30.27,29.74,,,,,,
2008-06-11 00:00:00,,,,30.14,30.365,29.955,,,,,,
2008-06-12 00:00:00,,,,30.215,30.215,29.655,,,,,,
2008-06-13 00:00:00,,,,30,31.02,29.96,,,,,,
2008-06-16 00:00:00,,,,30.7,31.095,30.635,,,,,,
2008-06-17 00:00:00,,,,31.045,31.215,30.73,,,,,,
2008-06-18 00:00:00,,,,30.385,30.65,30.13,,,,,,
2008-06-19 00:00:00,,,,30.395,30.705,30.085,,,,,,
2008-06-20 00:00:00,,,,30.415,30.48,29.74,,,,,,
2008-06-23 00:00:00,,,,30.195,30.385,29.87,,,,0,6,7
2008-06-24 00:00:00,,,,30.25,30.25,29.455,,,,0,6,7
2008-06-25 00:00:00,,,,29.695,29.815,29.445,,,,,,
2008-06-26 00:00:00,,,,29.255,29.255,28.58,,,,,,
2008-06-27 00:00:00,,,,28.615,28.82,28.41,,,,,,
2008-06-30 00:00:00,,,,28.36,28.94,28.36,,,,,,
2008-07-01 00:00:00,,,,28.315,28.835,28.205,,,,0,6,7
2008-07-02 00:00:00,,,,28.945,28.985,27.78,,,,,,
2008-07-03 00:00:00,,,,28.095,28.185,27.335,,,,,,
2008-07-07 00:00:00,,,,28,28.275,27.58,,,,,,
2008-07-08 00:00:00,,,,27.96,28.205,27.53,,,,0,6,7
2008-07-09 00:00:00,,,,28.25,28.375,27.33,,,,0,6,7
2008-07-10 00:00:00,,,,27.895,28.285,27.35,,,,,,
2008-07-11 00:00:00,,,,27.355,27.92,27.025,,,,,,
2008-07-14 00:00:00,,,,28.155,28.265,27.455,,,,,,
2008-07-15 00:00:00,,,,27.31,28.185,27.175,,,,,,
2008-07-16 00:00:00,,,,27.735,28.54,27.455,,,,,,
2008-07-17 00:00:00,,,,29.9,30.775,29.77,,,,0,6,7
2008-07-18 00:00:00,,,,30.75,30.925,30.08,,,,0,6,7
2008-07-21 00:00:00,,,,30.54,30.595,30.03,,,,0,5,7
2008-07-22 00:00:00,,,,30.375,30.865,30.195,,,,0,5,7
2008-07-23 00:00:00,,,,30.965,31.325,30.595,,,,,,
2008-07-24 00:00:00,,,,30.97,31.155,30.47,,,,,,
2008-07-25 00:00:00,,,,30.75,30.785,30.175,,,,,,
2008-07-28 00:00:00,,,,30.205,30.395,29.67,,,,,,
2008-07-29 00:00:00,,,,29.795,30.36,29.6,,,,,,
2008-07-30 00:00:00,,,,30.355,30.835,30.235,,,,,,
2008-07-31 00:00:00,,,,30.715,30.95,30.215,,,,,,
2008-08-01 00:00:00,,,,30.38,30.39,29.565,,,,,,
2008-08-04 00:00:00,,,,29.525,29.535,29.06,,,,,,
2008-08-05 00:00:00,,,,29.475,30.25,29.455,,,,,,
2008-08-06 00:00:00,,,,30.315,31.07,30.255,,,,0,5,7
2008-08-07 00:00:00,,,,30.525,31.435,30.42,,,,,,
2008-08-08 00:00:00,,,,30.64,31.695,30.39,,,,,,
2008-08-11 00:00:00,,,,31.55,32.34,31.325,,,,,,
2008-08-12 00:00:00,,,,32.01,32.43,31.96,,,,,,
2008-08-13 00:00:00,,,,32.065,32.105,30.965,,,,,,
2008-08-14 00:00:00,,,,31.37,31.71,31.17,,,,,,
2008-08-15 00:00:00,,,,31.92,32.36,31.61,,,,,,
2008-08-18 00:00:00,,,,32.475,32.49,32.035,,,,0,5,7
2008-08-19 00:00:00,,,,31.975,32.175,31.375,,,,,,
2008-08-20 00:00:00,,,,31.62,31.715,31.22,,,,,,
2008-08-21 00:00:00,,,,31.26,31.565,31.08,,,,,,
2008-08-22 00:00:00,,,,31.24,31.59,31,,,,,,
2008-08-25 00:00:00,,,,31.135,31.135,30.3,,,,,,
2008-08-26 00:00:00,,,,30.64,30.87,30.42,,,,,,
2008-08-27 00:00:00,,,,30.855,31.1,30.81,,,,,,
2008-08-28 00:00:00,,,,31.1,31.82,31.1,,,,,,
2008-08-29 00:00:00,,,,31.59,31.775,31.41,,,,,,
2008-09-02 00:00:00,,,,32.495,32.98,32.335,,,,,,
2008-09-03 00:00:00,,,,33.655,33.845,32.98,,,,,,
2008-09-04 00:00:00,,,,32.99,33.095,32.04,,,,,,
2008-09-05 00:00:00,,,,32.61,32.655,31.95,,,,,,
2008-09-08 00:00:00,,,,32.68,33.12,32.345,,,,0,4,8
2008-09-09 00:00:00,,,,32.705,33.23,32.28,,,,,,
2008-09-10 00:00:00,,,,32.525,32.835,32.14,,,,,,
2008-09-11 00:00:00,,,,31.975,33.385,31.85,,,,,,
2008-09-12 00:00:00,,,,33.15,33.91,32.99,,,,,,
2008-09-15 00:00:00,,,,33.075,34.52,33.055,,,,,,
2008-09-16 00:00:00,,,,32.625,33.795,32.025,,,,,,
2008-09-17 00:00:00,,,,33.09,33.345,31.865,,,,,,
2008-09-18 00:00:00,,,,33.69,34.315,31.955,,,,,,
2008-09-19 00:00:00,,,,34.495,34.925,33.385,,,,0,4,8
2008-09-22 00:00:00,,,,33.5,33.915,32.25,,,,,,
2008-09-23 00:00:00,,,,32.4,32.75,31.06,,,,0,4,8
2008-09-24 00:00:00,,,,30.365,30.5,29.57,,,,0,4,8
2008-09-25 00:00:00,,,,30.05,30.995,29.67,,,,0,4,8
2008-09-26 00:00:00,,,,30.125,30.78,30.055,,,,0,4,8
2008-09-29 00:00:00,,,,30.395,30.825,28.545,,,,,,
2008-09-30 00:00:00,,,,29.315,29.355,28.79,,,,0,4,8
2008-10-01 00:00:00,,,,28.915,29.55,28.58,,,,,,
2008-10-02 00:00:00,,,,28.785,28.835,27.785,,,,0,4,8
2008-10-03 00:00:00,,,,28.2,28.715,27.52,,,,,,
2008-10-06 00:00:00,,,,27.07,27.515,25.78,,,,,,
2008-10-07 00:00:00,,,,27.58,27.725,25.17,,,,0,4,8
2008-10-08 00:00:00,,,,24.99,26.965,24.99,,,,0,4,8
2008-10-09 00:00:00,,,,25.835,26.23,23.59,,,,,,
2008-10-10 00:00:00,,,,22.92,24.46,21.85,,,,0,4,8
2008-10-13 00:00:00,,,,23.61,25.495,23.305,,,,0,4,8
2008-10-14 00:00:00,,,,26.345,26.52,24.525,,,,,,
2008-10-15 00:00:00,,,,24.61,24.61,22.245,,,,0,4,8
2008-10-16 00:00:00,,,,23.04,25.545,22.19,,,,0,4,8
2008-10-17 00:00:00,,,,24.73,25.395,24.035,,,,0,4,8
2008-10-20 00:00:00,,,,24.295,25.25,24.02,,,,0,4,8
2008-10-21 00:00:00,,,,25.2,26.015,24.69,,,,0,5,7
2008-10-22 00:00:00,,,,24.11,24.225,22.53,,,,,,
2008-10-23 00:00:00,,,,23.665,24.45,22.11,,,,0,5,7
2008-10-24 00:00:00,,,,22.25,23.26,22.05,,,,,,
2008-10-27 00:00:00,,,,22.16,23.365,21.92,,,,0,4,7
2008-10-28 00:00:00,,,,22.56,23.94,21.5,,,,,,
2008-10-29 00:00:00,,,,23.775,24.89,23.465,,,,,,
2008-10-30 00:00:00,,,,24.44,24.78,23.58,,,,,,
2008-10-31 00:00:00,,,,24.45,25.12,24.13,,,,,,
2008-11-03 00:00:00,,,,24.62,25.32,24.555,,,,,,
2008-11-04 00:00:00,,,,25.74,25.955,25.22,,,,,,
2008-11-05 00:00:00,,,,25.38,25.705,24.06,,,,,,
2008-11-06 00:00:00,,,,23.955,24.15,22.14,,,,,,
2008-11-07 00:00:00,,,,22.53,23.43,22.285,,,,,,
2008-11-10 00:00:00,,,,23.915,24.05,22.67,,,,0,4,7
2008-11-11 00:00:00,,,,23.25,23.38,22.325,,,,,,
2008-11-12 00:00:00,,,,22.5,22.875,22.05,,,,,,
2008-11-13 00:00:00,,,,22.34,24.26,21.82,,,,0,4,7
2008-11-14 00:00:00,,,,23.525,23.985,22.635,,,,,,
2008-11-17 00:00:00,,,,22.6,22.8,22.05,,,,,,
2008-11-18 00:00:00,,,,22.09,22.735,21.505,,,,,,
2008-11-19 00:00:00,,,,21.865,22.35,20.5,,,,0,4,7
2008-11-20 00:00:00,,,,20.235,21.005,18.435,,,,,,
2008-11-21 00:00:00,,,,18.94,19.365,17.97,,,,0,4,7
2008-11-24 00:00:00,,,,19.81,21.37,19.585,,,,,,
2008-11-25 00:00:00,,,,21.415,21.705,20.41,,,,,,
2008-11-26 00:00:00,,,,20.835,21.955,20.6,,,,0,4,7
2008-11-28 00:00:00,,,,21.955,22.1,21.615,,,,,,
2008-12-01 00:00:00,,,,21.175,21.175,19.725,,,,,,
2008-12-02 00:00:00,,,,20.165,20.925,19.955,,,,,,
2008-12-03 00:00:00,,,,20.34,21.685,20.23,,,,,,
2008-12-04 00:00:00,,,,21.185,21.685,20.695,,,,,,
2008-12-05 00:00:00,,,,20.795,21.82,20.035,,,,0,4,7
2008-12-08 00:00:00,,,,22.365,23.15,22.295,,,,0,4,7
2008-12-09 00:00:00,,,,22.5,23.225,22.175,,,,,,
2008-12-10 00:00:00,,,,22.555,22.725,21.885,,,,,,
2008-12-11 00:00:00,,,,22.175,22.56,21.06,,,,0,3,7
2008-12-12 00:00:00,,,,20.75,22.2,20.665,,,,,,
2008-12-15 00:00:00,,,,22.02,22.345,21.385,,,,,,
2008-12-16 00:00:00,,,,22.03,23.075,21.85,,,,0,3,7
2008-12-17 00:00:00,,,,22.7,22.995,22.06,,,,0,3,7
2008-12-18 00:00:00,,,,22.23,22.39,21.275,,,,,,
2008-12-19 00:00:00,,,,21.515,21.6,20.655,,,,1,3,6
2008-12-22 00:00:00,,,,20.805,20.83,19.56,,,,1,3,6
2008-12-23 00:00:00,,,,20.1,20.2,19.355,,,,1,3,6
2008-12-24 00:00:00,,,,19.55,19.675,19.355,,,,1,3,6
2008-12-26 00:00:00,,,,19.565,19.76,19.17,,,,,,
2008-12-29 00:00:00,,,,19.7,19.7,19.19,,,,,,
2008-12-30 00:00:00,,,,19.465,20.235,19.38,,,,,,
2008-12-31 00:00:00,,,,20.33,21.32,20.33,,,,1,2,6
2009-01-02 00:00:00,,,,21.2,21.86,20.86,,,,1,2,6
2009-01-05 00:00:00,,,,21.475,21.91,21.255,,,,1,3,6
2009-01-06 00:00:00,,,,21.89,22.725,21.76,,,,,,
2009-01-07 00:00:00,,,,22.005,22.205,21.47,,,,,,
2009-01-08 00:00:00,,,,21.325,22.115,21.325,,,,,,
2009-01-09 00:00:00,,,,22.15,22.345,21.53,,,,,,
2009-01-12 00:00:00,,,,21.56,21.66,21.13,,,,1,3,6
2009-01-13 00:00:00,,,,21.155,21.195,20.655,,,,,,
2009-01-14 00:00:00,,,,20.5,20.71,20.005,,,,1,3,6
2009-01-15 00:00:00,,,,20.24,21.11,19.82,,,,,,
2009-01-16 00:00:00,,,,20.415,20.98,20.155,,,,1,3,6
2009-01-19 00:00:00,,,,,,,,,,1,3,6
2009-01-20 00:00:00,,,,20.54,20.59,19.675,,,,1,3,6
2009-01-21 00:00:00,,,,20.205,20.3,19.39,,,,1,4,6
2009-01-22 00:00:00,,,,19.86,20.005,19.395,,,,,,
2009-01-23 00:00:00,,,,19.315,19.92,19.16,,,,,,
2009-01-26 00:00:00,,,,19.64,20.105,19.19,,,,1,4,6
2009-01-27 00:00:00,,,,19.5,19.865,19.17,,,,,,
2009-01-28 00:00:00,,,,19.995,20.625,19.835,,,,,,
2009-01-29 00:00:00,,,,20.245,20.395,19.63,,,,,,
2009-01-30 00:00:00,,,,19.665,19.685,18.705,,,,,,
2009-02-02 00:00:00,,,,18.5,18.97,18.405,,,,,,
2009-02-03 00:00:00,,,,18.805,19.02,18.42,,,,,,
2009-02-04 00:00:00,,,,18.38,18.65,18.195,,,,,,
2009-02-05 00:00:00,,,,18.155,19.01,18.065,,,,,,
2009-02-06 00:00:00,,,,18.94,19.66,18.94,,,,,,
2009-02-09 00:00:00,,,,19.5,20.075,19.4,,,,,,
2009-02-10 00:00:00,,,,19.49,19.84,18.56,,,,1,4,6
2009-02-11 00:00:00,,,,18.835,18.965,18.44,,,,,,
2009-02-12 00:00:00,,,,18.2,18.465,17.815,,,,,,
2009-02-13 00:00:00,,,,18.285,18.425,18.01,,,,,,
2009-02-16 00:00:00,,,,,,,,,,1,4,6
2009-02-17 00:00:00,,,,17.615,17.635,17.19,,,,1,4,6
2009-02-18 00:00:00,,,,16.965,17.315,16.69,,,,,,
2009-02-19 00:00:00,,,,17.23,17.545,16.62,,,,,,
2009-02-20 00:00:00,,,,16.5,16.58,15.8,,,,,,
2009-02-23 00:00:00,,,,16.485,16.5,15.52,,,,,,
2009-02-24 00:00:00,,,,15.645,16.35,15.4,,,,,,
2009-02-25 00:00:00,,,,16.215,16.37,15.82,,,,,,
2009-02-26 00:00:00,,,,16.115,16.455,15.67,,,,,,
2009-02-27 00:00:00,,,,15.35,15.95,15.325,,,,,,
2009-03-02 00:00:00,,,,15.17,15.46,14.945,,,,,,
2009-03-03 00:00:00,,,,15.17,15.365,14.81,,,,1,4,6
2009-03-04 00:00:00,,,,15.025,15.7,15.025,,,,,,
2009-03-05 00:00:00,,,,14.875,14.96,14.08,,,,,,
2009-03-06 00:00:00,,,,14.415,14.87,14.29,,,,,,
2009-03-09 00:00:00,,,,14.595,14.94,14.49,,,,,,
2009-03-10 00:00:00,,,,15,16.355,15,,,,,,
2009-03-11 00:00:00,,,,16.5,16.61,16.235,,,,,,
2009-03-12 00:00:00,,,,16.48,17.275,16.295,,,,2,4,5
2009-03-13 00:00:00,,,,16.63,16.655,16.315,,,,2,4,5
2009-03-16 00:00:00,,,,16.585,16.865,16.4,,,,,,
2009-03-17 00:00:00,,,,16.34,16.985,16.25,,,,2,4,5
2009-03-18 00:00:00,,,,16.905,17.645,16.665,,,,,,
2009-03-19 00:00:00,,,,17.575,17.745,17.385,,,,,,
2009-03-20 00:00:00,,,,17.54,17.685,17.245,,,,,,
2009-03-23 00:00:00,,,,17.7,18.5,17.64,,,,,,
2009-03-24 00:00:00,,,,18.2,18.68,18.165,,,,,,
2009-03-25 00:00:00,,,,18.26,19.025,17.83,,,,,,
2009-03-26 00:00:00,,,,18.61,19.52,18.61,,,,,,
2009-03-27 00:00:00,,,,18.5,18.5,17.75,,,,2,3,6
2009-03-30 00:00:00,,,,17.87,18.47,17.735,,,,,,
2009-03-31 00:00:00,,,,18.54,18.765,18.2,,,,,,
2009-04-01 00:00:00,,,,18.075,19.815,17.81,,,,,,
2009-04-02 00:00:00,,,,20.5,21.2,20.405,,,,,,
2009-04-03 00:00:00,,,,20.98,22.28,20.935,,,,2,3,6
2009-04-06 00:00:00,,,,22.005,22.215,21.83,,,,2,3,6
2009-04-07 00:00:00,,,,21.8,21.87,20.955,,,,2,3,6
2009-04-08 00:00:00,,,,21.485,21.565,20.94,,,,2,3,6
2009-04-09 00:00:00,,,,21.9,22.51,21.88,,,,,,
2009-04-13 00:00:00,,,,21.875,22.775,21.775,,,,,,
2009-04-14 00:00:00,,,,22.25,22.705,21.89,,,,,,
2009-04-15 00:00:00,,,,22.025,22.22,21.83,,,,,,
2009-04-16 00:00:00,,,,22.415,23.15,22.035,,,,2,3,6
2009-04-17 00:00:00,,,,22.925,23.02,22.08,,,,2,3,6
2009-04-20 00:00:00,,,,22.285,22.285,21.305,,,,3,3,6
2009-04-21 00:00:00,,,,21.3,21.865,21.125,,,,,,
2009-04-22 00:00:00,,,,21.555,22.64,21.495,,,,,,
2009-04-23 00:00:00,,,,22.19,22.23,21.16,,,,3,3,6
2009-04-24 00:00:00,,,,21.82,22.89,21.82,,,,,,
2009-04-27 00:00:00,,,,22.15,22.485,21.785,,,,,,
2009-04-28 00:00:00,,,,21.755,21.885,21.45,,,,,,
2009-04-29 00:00:00,,,,21.98,22.305,21.885,,,,,,
2009-04-30 00:00:00,,,,22.345,22.535,21.81,,,,,,
2009-05-01 00:00:00,,,,22.05,22.26,21.78,,,,,,
2009-05-04 00:00:00,,,,22.085,23.285,22.085,,,,,,
2009-05-05 00:00:00,,,,23.195,23.345,22.59,,,,,,
2009-05-06 00:00:00,,,,23.16,23.16,22.555,,,,,,
2009-05-07 00:00:00,,,,22.88,22.895,21.645,,,,,,
2009-05-08 00:00:00,,,,22.03,22.39,21.765,,,,3,3,6
2009-05-11 00:00:00,,,,21.95,22,21.54,,,,3,3,6
2009-05-12 00:00:00,,,,21.805,22.04,21.435,,,,,,
2009-05-13 00:00:00,,,,21.4,21.4,20.885,,,,,,
2009-05-14 00:00:00,,,,21.105,21.45,20.82,,,,,,
2009-05-15 00:00:00,,,,21.315,21.59,20.91,,,,3,3,6
2009-05-18 00:00:00,,,,21.335,22.07,21.28,,,,,,
2009-05-19 00:00:00,,,,21.91,22.52,21.88,,,,,,
2009-05-20 00:00:00,,,,22.5,23.395,22.37,,,,,,
2009-05-21 00:00:00,,,,22.55,22.55,21.79,,,,,,
2009-05-22 00:00:00,,,,22.1,22.57,21.98,,,,,,
2009-05-26 00:00:00,,,,22.025,22.625,21.92,,,,,,
2009-05-27 00:00:00,,,,22.5,22.655,21.865,,,,,,
2009-05-28 00:00:00,,,,22.055,22.235,21.475,,,,,,
2009-05-29 00:00:00,,,,22.12,22.235,21.755,,,,,,
2009-06-01 00:00:00,,,,22.57,23.145,22.565,,,,,,
2009-06-02 00:00:00,,,,22.92,23.01,22.75,,,,3,3,6
2009-06-03 00:00:00,,,,22.49,22.615,21.96,,,,,,
2009-06-04 00:00:00,,,,22.445,22.625,22.14,,,,,,
2009-06-05 00:00:00,,,,22.86,23,22.28,,,,,,
2009-06-08 00:00:00,,,,22.31,22.31,21.7,,,,3,3,6
2009-06-09 00:00:00,,,,22.18,22.85,22.08,,,,,,
2009-06-10 00:00:00,,,,22.87,22.94,22.12,,,,,,
2009-06-11 00:00:00,,,,22.72,23.03,22.65,,,,,,
2009-06-12 00:00:00,,,,22.825,22.84,22.44,,,,,,
2009-06-15 00:00:00,,,,22.4,22.41,21.855,,,,,,
2009-06-16 00:00:00,,,,22.115,22.12,21.505,,,,3,3,6
2009-06-17 00:00:00,,,,21.5,21.815,21.2,,,,3,3,6
2009-06-18 00:00:00,,,,21.57,21.96,21.425,,,,,,
2009-06-19 00:00:00,,,,21.59,21.595,21.25,,,,,,
2009-06-22 00:00:00,,,,21.14,21.155,20.815,,,,,,
2009-06-23 00:00:00,,,,20.785,20.86,20.545,,,,,,
2009-06-24 00:00:00,,,,20.9,21.7,20.88,,,,,,
2009-06-25 00:00:00,,,,21.4,21.925,21.25,,,,,,
2009-06-26 00:00:00,,,,21.74,21.985,21.71,,,,,,
2009-06-29 00:00:00,,,,21.785,22.08,21.56,,,,3,3,6
2009-06-30 00:00:00,,,,21.885,22.205,21.725,,,,,,
2009-07-01 00:00:00,,,,21.895,22.145,21.755,,,,,,
2009-07-02 00:00:00,,,,21.51,21.55,21.075,,,,,,
2009-07-06 00:00:00,,,,20.995,21.56,20.9,,,,,,
2009-07-07 00:00:00,,,,21.48,21.48,20.795,,,,,,
2009-07-08 00:00:00,,,,20.89,21.04,20.69,,,,,,
2009-07-09 00:00:00,,,,21.02,21.21,20.85,,,,,,
2009-07-10 00:00:00,,,,20.86,21.12,20.61,,,,,,
2009-07-13 00:00:00,,,,20.925,21.84,20.81,,,,,,
2009-07-14 00:00:00,,,,21.78,22.205,21.665,,,,3,3,6
2009-07-15 00:00:00,,,,22.385,23.055,22.385,,,,3,3,6
2009-07-16 00:00:00,,,,23.795,24.75,23.775,,,,3,3,6
2009-07-17 00:00:00,,,,24.525,25.075,24.485,,,,3,3,6
2009-07-20 00:00:00,,,,24.965,25.33,24.77,,,,3,3,6
2009-07-21 00:00:00,,,,25.505,25.95,24.685,,,,,,
2009-07-22 00:00:00,,,,25.07,25.66,25.04,,,,,,
2009-07-23 00:00:00,,,,25.495,26.275,25.26,,,,,,
2009-07-24 00:00:00,,,,25.81,26.28,25.725,,,,,,
2009-07-27 00:00:00,,,,26.28,26.65,26.115,,,,,,
2009-07-28 00:00:00,,,,26.115,26.37,25.9,,,,,,
2009-07-29 00:00:00,,,,26,26.24,25.645,,,,,,
2009-07-30 00:00:00,,,,26.41,27.425,26.365,,,,,,
2009-07-31 00:00:00,,,,27.345,27.805,27.17,,,,,,
2009-08-03 00:00:00,,,,27.75,28.46,27.675,,,,,,
2009-08-04 00:00:00,,,,28.215,28.54,28.09,,,,,,
2009-08-05 00:00:00,,,,28.59,28.715,28.065,,,,,,
2009-08-06 00:00:00,,,,28.425,28.5,27.93,,,,3,3,6
2009-08-07 00:00:00,,,,28.15,28.29,27.78,,,,3,3,6
2009-08-10 00:00:00,,,,27.85,27.98,27.415,,,,,,
2009-08-11 00:00:00,,,,27.34,27.72,27.305,,,,,,
2009-08-12 00:00:00,,,,27.43,27.955,27.405,,,,,,
2009-08-13 00:00:00,,,,27.765,28.205,27.69,,,,,,
2009-08-14 00:00:00,,,,27.95,27.95,27.01,,,,,,
2009-08-17 00:00:00,,,,26.635,26.65,26.38,,,,,,
2009-08-18 00:00:00,,,,26.695,26.715,26.18,,,,,,
2009-08-19 00:00:00,,,,26.225,26.91,26.125,,,,,,
2009-08-20 00:00:00,,,,26.595,26.865,26.325,,,,,,
2009-08-21 00:00:00,,,,26.945,27.35,26.665,,,,,,
2009-08-24 00:00:00,,,,27.41,27.615,27.005,,,,,,
2009-08-25 00:00:00,,,,27.22,27.715,27.09,,,,3,3,6
2009-08-26 00:00:00,,,,26.925,27.375,26.755,,,,,,
2009-08-27 00:00:00,,,,26.825,27.705,26.54,,,,,,
2009-08-28 00:00:00,,,,27.63,28.205,27.45,,,,,,
2009-08-31 00:00:00,,,,27.63,27.735,27.39,,,,,,
2009-09-01 00:00:00,,,,27.62,27.915,26.965,,,,,,
2009-09-02 00:00:00,,,,26.9,27.09,26.665,,,,,,
2009-09-03 00:00:00,,,,27.005,27.105,26.735,,,,,,
2009-09-04 00:00:00,,,,27.025,27.46,26.755,,,,,,
2009-09-08 00:00:00,,,,27.485,27.795,27.385,,,,,,
2009-09-09 00:00:00,,,,27.605,28.32,27.455,,,,,,
2009-09-10 00:00:00,,,,28.085,28.54,27.995,,,,,,
2009-09-11 00:00:00,,,,28.59,28.825,28.365,,,,,,
2009-09-14 00:00:00,,,,28.4,28.975,28.27,,,,,,
2009-09-15 00:00:00,,,,28.945,29.795,28.79,,,,2,3,7
2009-09-16 00:00:00,,,,30.035,30.22,29.84,,,,2,3,7
2009-09-17 00:00:00,,,,29.86,30.09,29.435,,,,,,
2009-09-18 00:00:00,,,,29.83,30,29.67,,,,,,
2009-09-21 00:00:00,,,,29.5,30.005,29.215,,,,2,3,7
2009-09-22 00:00:00,,,,30.2,30.22,29.925,,,,,,
2009-09-23 00:00:00,,,,30.065,30.19,29.5,,,,2,3,7
2009-09-24 00:00:00,,,,29.72,29.755,29.105,,,,2,3,7
2009-09-25 00:00:00,,,,29.1,29.26,28.665,,,,,,
2009-09-28 00:00:00,,,,29.005,29.625,28.905,,,,2,3,7
2009-09-29 00:00:00,,,,29.485,29.75,29.31,,,,,,
2009-09-30 00:00:00,,,,29.385,29.5,28.815,,,,,,
2009-10-01 00:00:00,,,,28.96,29.17,28.245,,,,2,3,7
2009-10-02 00:00:00,,,,27.85,28.45,27.81,,,,,,
2009-10-05 00:00:00,,,,28.225,28.82,28.1,,,,2,3,7
2009-10-06 00:00:00,,,,29.045,29.395,28.5,,,,,,
2009-10-07 00:00:00,,,,28.91,29.15,28.735,,,,,,
2009-10-08 00:00:00,,,,29.215,29.685,29.145,,,,,,
2009-10-09 00:00:00,,,,29.645,29.88,29.46,,,,2,3,7
2009-10-12 00:00:00,,,,29.885,30.24,29.86,,,,,,
2009-10-13 00:00:00,,,,29.875,30.355,29.875,,,,,,
2009-10-14 00:00:00,,,,30.625,30.925,30.53,,,,,,
2009-10-15 00:00:00,,,,30.28,31.1,30.225,,,,2,3,7
2009-10-16 00:00:00,,,,30.855,30.905,30.37,,,,2,3,7
2009-10-19 00:00:00,,,,30.76,31.15,30.66,,,,,,
2009-10-20 00:00:00,,,,30.82,30.955,30.325,,,,2,3,7
2009-10-21 00:00:00,,,,30.52,30.935,29.775,,,,2,3,7
2009-10-22 00:00:00,,,,29.82,30.43,29.475,,,,,,
2009-10-23 00:00:00,,,,30.36,30.37,29.515,,,,2,3,7
2009-10-26 00:00:00,,,,29.67,30.07,28.91,,,,,,
2009-10-27 00:00:00,,,,29.155,29.735,29.095,,,,,,
2009-10-28 00:00:00,,,,29.47,29.785,28.565,,,,,,
2009-10-29 00:00:00,,,,28.93,29.23,28.785,,,,,,
2009-10-30 00:00:00,,,,29.045,29.055,27.95,,,,,,
2009-11-02 00:00:00,,,,28.325,28.86,28.115,,,,,,
2009-11-03 00:00:00,,,,28.49,29.065,28.27,,,,,,
2009-11-04 00:00:00,,,,29.27,29.35,28.765,,,,,,
2009-11-05 00:00:00,,,,29.06,29.675,28.975,,,,,,
2009-11-06 00:00:00,,,,29.28,29.755,29.105,,,,,,
2009-11-09 00:00:00,,,,29.635,30.435,29.58,,,,,,
2009-11-10 00:00:00,,,,30.305,30.625,30.235,,,,,,
2009-11-11 00:00:00,,,,30.75,30.865,30.395,,,,,,
2009-11-12 00:00:00,,,,30.475,30.595,29.905,,,,,,
2009-11-13 00:00:00,,,,30.205,30.43,29.885,,,,,,
2009-11-16 00:00:00,,,,30.4,30.825,30.365,,,,,,
2009-11-17 00:00:00,,,,30.565,30.745,30.39,,,,,,
2009-11-18 00:00:00,,,,30.55,30.66,30.04,,,,,,
2009-11-19 00:00:00,,,,30.085,30.085,29.465,,,,,,
2009-11-20 00:00:00,,,,29.625,29.76,29.335,,,,,,
2009-11-23 00:00:00,,,,30.015,30.57,30.01,,,,,,
2009-11-24 00:00:00,,,,30.335,30.425,29.845,,,,,,
2009-11-25 00:00:00,,,,30.015,30.485,29.965,,,,,,
2009-11-27 00:00:00,,,,29.505,30.035,29.405,,,,,,
2009-11-30 00:00:00,,,,29.56,29.95,29.425,,,,,,
2009-12-01 00:00:00,,,,30.025,30.185,29.875,,,,,,
2009-12-02 00:00:00,,,,30,30.535,29.84,,,,,,
2009-12-03 00:00:00,,,,30.25,30.405,29.78,,,,,,
2009-12-04 00:00:00,,,,30.205,30.32,29.855,,,,,,
2009-12-07 00:00:00,,,,30.045,30.4,30.045,,,,,,
2009-12-08 00:00:00,,,,29.945,29.99,29.325,,,,,,
2009-12-09 00:00:00,,,,29.43,29.745,29.105,,,,2,3,7
2009-12-10 00:00:00,,,,30,30.065,29.365,,,,,,
2009-12-11 00:00:00,,,,29.655,29.655,29.015,,,,,,
2009-12-14 00:00:00,,,,29.525,29.875,29.33,,,,,,
2009-12-15 00:00:00,,,,29.68,29.99,29.34,,,,,,
2009-12-16 00:00:00,,,,29.545,29.8,29.485,,,,,,
2009-12-17 00:00:00,,,,29.44,29.45,29.115,,,,,,
2009-12-18 00:00:00,,,,29.405,29.45,28.825,,,,,,
2009-12-21 00:00:00,,,,29,29.32,28.925,,,,,,
2009-12-22 00:00:00,,,,29.26,29.53,29.12,,,,,,
2009-12-23 00:00:00,,,,29.57,29.665,29.22,,,,,,
2009-12-24 00:00:00,,,,29.675,29.87,29.63,,,,,,
2009-12-28 00:00:00,,,,29.83,30.08,29.68,,,,,,
2009-12-29 00:00:00,,,,29.875,30,29.585,,,,,,
2009-12-30 00:00:00,,,,29.555,29.83,29.375,,,,,,
2009-12-31 00:00:00,,,,29.725,29.725,29.245,,,,,,
2010-01-04 00:00:00,,,,29.495,30.32,29.495,,,,2,3,7
2010-01-05 00:00:00,,,,30.21,30.57,30.205,,,,,,
2010-01-06 00:00:00,,,,30.345,31,30.345,,,,2,3,7
2010-01-07 00:00:00,,,,30.755,30.945,30.445,,,,2,3,7
2010-01-08 00:00:00,,,,30.86,30.99,30.635,,,,,,
2010-01-11 00:00:00,,,,30.955,31,30.645,,,,,,
2010-01-12 00:00:00,,,,30.55,30.66,30.09,,,,,,
2010-01-13 00:00:00,,,,30.55,30.755,30.215,,,,2,3,7
2010-01-14 00:00:00,,,,31.5,31.84,31.22,,,,2,4,6
2010-01-15 00:00:00,,,,31.46,31.485,30.835,,,,,,
2010-01-19 00:00:00,,,,31.085,32.13,31.085,,,,,,
2010-01-20 00:00:00,,,,31.97,31.995,31.135,,,,,,
2010-01-21 00:00:00,,,,30.61,31.235,29.5,,,,2,4,6
2010-01-22 00:00:00,,,,29.585,30.455,29.455,,,,2,4,6
2010-01-25 00:00:00,,,,30.375,30.715,30.28,,,,,,
2010-01-26 00:00:00,,,,30.365,30.65,29.925,,,,,,
2010-01-27 00:00:00,,,,29.91,29.91,29.195,,,,2,4,6
2010-01-28 00:00:00,,,,29.82,29.82,28.89,,,,,,
2010-01-29 00:00:00,,,,29.675,30.08,29.32,,,,,,
2010-02-01 00:00:00,,,,29.59,29.77,29.435,,,,,,
2010-02-02 00:00:00,,,,29.715,30.25,29.455,,,,,,
2010-02-03 00:00:00,,,,29.825,30.165,29.425,,,,,,
2010-02-04 00:00:00,,,,29.355,29.475,28.775,,,,,,
2010-02-05 00:00:00,,,,28.74,29.25,28.485,,,,,,
2010-02-08 00:00:00,,,,29.105,29.415,28.71,,,,,,
2010-02-09 00:00:00,,,,29.135,29.765,28.97,,,,,,
2010-02-10 00:00:00,,,,29.445,30.025,29.185,,,,,,
2010-02-11 00:00:00,,,,29.67,30.195,29.515,,,,,,
